   1.1230500e-01
   7.3242200e-02
   2.4414100e-02
  -5.8593800e-02
  -1.0742200e-01
  -1.6601600e-01
  -2.3925800e-01
  -2.4902300e-01
  -2.5878900e-01
  -2.5878900e-01
  -2.5390600e-01
  -2.3925800e-01
  -2.2949200e-01
  -2.3437500e-01
  -2.3925800e-01
  -2.5390600e-01
  -2.7343800e-01
  -2.9785200e-01
  -3.1738300e-01
  -3.2714800e-01
  -3.4668000e-01
  -3.7109400e-01
  -4.0039100e-01
  -4.2968800e-01
  -4.6875000e-01
  -5.0293000e-01
  -5.3222700e-01
  -5.6640600e-01
  -5.9082000e-01
  -6.1035200e-01
  -6.2988300e-01
  -6.4453100e-01
  -6.5918000e-01
  -6.6894500e-01
  -6.7871100e-01
  -6.8359400e-01
  -6.8359400e-01
  -6.7382800e-01
  -6.6894500e-01
  -6.6406300e-01
  -6.6406300e-01
  -6.5429700e-01
  -6.4941400e-01
  -6.3964800e-01
  -6.3476600e-01
  -6.2988300e-01
  -6.2500000e-01
  -6.2011700e-01
  -6.1035200e-01
  -5.9570300e-01
  -5.7617200e-01
  -5.5664100e-01
  -5.4199200e-01
  -5.2734400e-01
  -5.2246100e-01
  -5.1757800e-01
  -5.1757800e-01
  -5.2246100e-01
  -5.3222700e-01
  -5.3710900e-01
  -5.4687500e-01
  -5.6152300e-01
  -5.7128900e-01
  -5.7617200e-01
  -5.7617200e-01
  -5.8105500e-01
  -5.8105500e-01
  -5.7128900e-01
  -5.5175800e-01
  -5.2734400e-01
  -5.0293000e-01
  -4.7363300e-01
  -4.3457000e-01
  -4.1015600e-01
  -3.9550800e-01
  -3.8085900e-01
  -3.6621100e-01
  -3.4668000e-01
  -3.2226600e-01
  -2.9296900e-01
  -2.5878900e-01
  -2.2460900e-01
  -2.0019500e-01
  -1.8554700e-01
  -1.8066400e-01
  -1.8066400e-01
  -1.8066400e-01
  -1.7578100e-01
  -1.6113300e-01
  -1.3671900e-01
  -9.7656300e-02
  -6.8359400e-02
  -3.4179700e-02
  -9.7656300e-03
   9.7656300e-03
   2.4414100e-02
   3.4179700e-02
   4.8828100e-02
   7.8125000e-02
   1.3183600e-01
   1.7089800e-01
   2.0019500e-01
   1.8554700e-01
   2.6367200e-01
   2.8320300e-01
   2.4902300e-01
   2.9785200e-01
   3.2714800e-01
   3.8085900e-01
   4.2480500e-01
   4.1992200e-01
   5.0781300e-01
   5.2246100e-01
   5.3710900e-01
   6.0058600e-01
   5.7617200e-01
   5.4199200e-01
   5.1269500e-01
   5.3222700e-01
   4.6875000e-01
   4.2968800e-01
   4.7363300e-01
   4.9316400e-01
   5.1757800e-01
   5.3710900e-01
   5.3710900e-01
   5.7128900e-01
   6.5918000e-01
   6.2011700e-01
   6.5429700e-01
   6.7382800e-01
   5.9570300e-01
   6.0546900e-01
   5.3222700e-01
   5.0293000e-01
   4.9316400e-01
   4.6875000e-01
   4.5898400e-01
   4.2480500e-01
   4.7363300e-01
   4.6875000e-01
   4.9316400e-01
   4.5898400e-01
   5.1757800e-01
   4.7851600e-01
   4.8828100e-01
   4.6386700e-01
   4.4921900e-01
   3.8574200e-01
   3.6132800e-01
   3.9062500e-01
   3.3691400e-01
   3.7597700e-01
   3.5644500e-01
   3.1738300e-01
   2.9296900e-01
   2.5878900e-01
   2.3437500e-01
   2.6367200e-01
   2.6367200e-01
   2.1484400e-01
   2.3925800e-01
   2.1972700e-01
   2.4902300e-01
   2.6855500e-01
   2.4902300e-01
   2.2949200e-01
   1.5625000e-01
   1.5625000e-01
   8.7890600e-02
   6.8359400e-02
   4.8828100e-03
  -2.4414100e-02
  -7.3242200e-02
  -8.3007800e-02
  -8.7890600e-02
  -6.3476600e-02
  -6.3476600e-02
  -5.8593800e-02
  -6.8359400e-02
  -7.3242200e-02
  -1.3183600e-01
  -1.3671900e-01
  -2.2949200e-01
  -2.8320300e-01
  -3.6132800e-01
  -4.3457000e-01
  -4.8828100e-01
  -5.3222700e-01
  -5.6152300e-01
  -5.6640600e-01
  -5.7617200e-01
  -5.8105500e-01
  -5.8593800e-01
  -5.9570300e-01
  -6.1035200e-01
  -6.2500000e-01
  -6.3964800e-01
  -6.5429700e-01
  -6.7382800e-01
  -6.8847700e-01
  -7.0800800e-01
  -7.2265600e-01
  -7.2753900e-01
  -7.3242200e-01
  -7.2265600e-01
  -7.1289100e-01
  -7.0312500e-01
  -6.8847700e-01
  -6.7382800e-01
  -6.5429700e-01
  -6.3476600e-01
  -6.2011700e-01
  -6.0546900e-01
  -5.8593800e-01
  -5.6640600e-01
  -5.5175800e-01
  -5.4199200e-01
  -5.3222700e-01
  -5.2734400e-01
  -5.2734400e-01
  -5.3222700e-01
  -5.3710900e-01
  -5.4687500e-01
  -5.5664100e-01
  -5.6640600e-01
  -5.6640600e-01
  -5.7128900e-01
  -5.7128900e-01
  -5.6640600e-01
  -5.6640600e-01
  -5.6640600e-01
  -5.5664100e-01
  -5.4687500e-01
  -5.2734400e-01
  -4.9804700e-01
  -4.6875000e-01
  -4.3457000e-01
  -4.0527300e-01
  -3.7597700e-01
  -3.4668000e-01
  -3.2226600e-01
  -3.1738300e-01
  -3.1738300e-01
  -3.3203100e-01
  -3.4668000e-01
  -3.6621100e-01
  -3.7597700e-01
  -3.7109400e-01
  -3.4668000e-01
  -3.0273400e-01
  -2.4414100e-01
  -1.8066400e-01
  -1.1230500e-01
  -4.8828100e-02
   9.7656300e-03
   4.8828100e-02
   8.3007800e-02
   8.7890600e-02
   1.1718800e-01
   1.1230500e-01
   1.5136700e-01
   1.0253900e-01
   1.4648400e-01
   1.0253900e-01
   1.3671900e-01
   1.3671900e-01
   1.6113300e-01
   1.9531300e-01
   2.0996100e-01
   2.3925800e-01
   2.6367200e-01
   3.0273400e-01
   2.6855500e-01
   2.8320300e-01
   3.2714800e-01
   3.0761700e-01
   3.4668000e-01
   3.1738300e-01
   3.8085900e-01
   3.7597700e-01
   4.1992200e-01
   3.8574200e-01
   4.1503900e-01
   4.4921900e-01
   4.2480500e-01
   4.6875000e-01
   4.7851600e-01
   4.6386700e-01
   5.3710900e-01
   5.7617200e-01
   5.6152300e-01
   6.4453100e-01
   6.1523400e-01
   6.8359400e-01
   6.7871100e-01
   6.4453100e-01
   6.8359400e-01
   6.5429700e-01
   6.2500000e-01
   6.5429700e-01
   6.0058600e-01
   6.4941400e-01
   6.0546900e-01
   6.1523400e-01
   6.2011700e-01
   5.4687500e-01
   4.8828100e-01
   4.9316400e-01
   4.6875000e-01
   3.9062500e-01
   3.6132800e-01
   3.8574200e-01
   3.2226600e-01
   3.3203100e-01
   2.8808600e-01
   3.0273400e-01
   2.4902300e-01
   2.2460900e-01
   2.1972700e-01
   2.0996100e-01
   1.9531300e-01
   2.0019500e-01
   1.6113300e-01
   1.7578100e-01
   1.6601600e-01
   1.6113300e-01
   1.7578100e-01
   1.7089800e-01
   1.7578100e-01
   2.0996100e-01
   2.0019500e-01
   1.5625000e-01
   1.2207000e-01
   4.8828100e-02
   0.0000000e+00
  -2.4414100e-02
  -6.8359400e-02
  -1.5136700e-01
  -2.0507800e-01
  -2.4414100e-01
  -2.6855500e-01
  -2.7832000e-01
  -2.7343800e-01
  -2.4902300e-01
  -2.2460900e-01
  -1.9531300e-01
  -1.8066400e-01
  -1.7089800e-01
  -1.7578100e-01
  -1.9043000e-01
  -2.1972700e-01
  -2.5390600e-01
  -2.8808600e-01
  -3.1738300e-01
  -3.3691400e-01
  -3.5156300e-01
  -3.6621100e-01
  -3.6132800e-01
  -3.8085900e-01
  -4.0039100e-01
  -4.2480500e-01
  -4.5898400e-01
  -4.9316400e-01
  -5.2734400e-01
  -5.6152300e-01
  -5.8593800e-01
  -6.1035200e-01
  -6.2988300e-01
  -6.4941400e-01
  -6.5918000e-01
  -6.7382800e-01
  -6.7871100e-01
  -6.8359400e-01
  -6.7871100e-01
  -6.7382800e-01
  -6.6406300e-01
  -6.5429700e-01
  -6.3964800e-01
  -6.2011700e-01
  -6.0058600e-01
  -5.8105500e-01
  -5.6152300e-01
  -5.4687500e-01
  -5.3222700e-01
  -5.3222700e-01
  -5.4199200e-01
  -5.6152300e-01
  -5.9082000e-01
  -6.2011700e-01
  -6.4453100e-01
  -6.5918000e-01
  -6.6406300e-01
  -6.5918000e-01
  -6.4941400e-01
  -6.3476600e-01
  -6.1523400e-01
  -5.9082000e-01
  -5.6640600e-01
  -5.4199200e-01
  -5.2246100e-01
  -5.1269500e-01
  -5.0781300e-01
  -5.2246100e-01
  -5.3222700e-01
  -5.3710900e-01
  -5.3222700e-01
  -5.1757800e-01
  -4.8828100e-01
  -4.4921900e-01
  -4.1015600e-01
  -3.8574200e-01
  -3.7109400e-01
  -3.6621100e-01
  -3.6621100e-01
  -3.7109400e-01
  -3.6621100e-01
  -3.5156300e-01
  -3.2714800e-01
  -2.9296900e-01
  -2.5390600e-01
  -2.0996100e-01
  -1.5625000e-01
  -1.0253900e-01
  -4.3945300e-02
   9.7656300e-03
   6.3476600e-02
   1.2207000e-01
   1.6113300e-01
   1.5625000e-01
   1.7089800e-01
   2.0996100e-01
   1.7089800e-01
   1.7089800e-01
   1.8554700e-01
   2.0019500e-01
   2.1972700e-01
   2.1484400e-01
   1.9043000e-01
   1.7089800e-01
   2.1484400e-01
   1.5625000e-01
   2.1972700e-01
   1.8066400e-01
   2.3437500e-01
   2.4902300e-01
   2.2460900e-01
   2.5390600e-01
   2.6367200e-01
   2.3437500e-01
   2.7832000e-01
   2.9785200e-01
   3.0761700e-01
   3.1738300e-01
   3.2226600e-01
   3.2714800e-01
   3.1250000e-01
   3.6132800e-01
   3.2714800e-01
   3.5156300e-01
   4.3457000e-01
   4.8339800e-01
   4.7363300e-01
   5.4199200e-01
   5.4199200e-01
   5.5664100e-01
   5.6640600e-01
   5.7128900e-01
   5.6640600e-01
   6.3476600e-01
   6.2011700e-01
   6.7382800e-01
   6.2500000e-01
   6.5918000e-01
   6.1035200e-01
   6.2500000e-01
   5.9082000e-01
   5.5175800e-01
   4.7363300e-01
   4.8828100e-01
   4.8339800e-01
   4.1992200e-01
   4.3945300e-01
   4.2480500e-01
   3.8574200e-01
   3.9062500e-01
   3.4668000e-01
   3.9062500e-01
   3.4668000e-01
   3.7597700e-01
   3.2714800e-01
   3.0273400e-01
   3.2226600e-01
   3.0273400e-01
   2.8320300e-01
   3.1250000e-01
   3.4179700e-01
   3.5644500e-01
   3.0273400e-01
   2.7343800e-01
   2.8808600e-01
   2.0996100e-01
   2.1484400e-01
   2.0996100e-01
   1.6601600e-01
   2.0507800e-01
   2.3437500e-01
   2.1972700e-01
   2.1972700e-01
   2.4902300e-01
   1.8554700e-01
   1.5136700e-01
   7.3242200e-02
   3.4179700e-02
  -5.3710900e-02
  -1.4160200e-01
  -2.0507800e-01
  -2.7832000e-01
  -3.2226600e-01
  -3.5644500e-01
  -3.8085900e-01
  -4.0527300e-01
  -4.1992200e-01
  -4.2480500e-01
  -4.1992200e-01
  -4.1992200e-01
  -3.9062500e-01
  -3.7597700e-01
  -3.4668000e-01
  -3.2714800e-01
  -3.2226600e-01
  -3.3203100e-01
  -3.4668000e-01
  -3.8085900e-01
  -4.2480500e-01
  -4.6386700e-01
  -5.0293000e-01
  -5.3710900e-01
  -5.5664100e-01
  -5.7617200e-01
  -5.8105500e-01
  -5.9570300e-01
  -6.1523400e-01
  -6.4941400e-01
  -6.8359400e-01
  -7.1289100e-01
  -7.3242200e-01
  -7.3242200e-01
  -7.1777300e-01
  -6.8847700e-01
  -6.5918000e-01
  -6.2500000e-01
  -5.9570300e-01
  -5.7128900e-01
  -5.5175800e-01
  -5.3222700e-01
  -5.1269500e-01
  -4.8828100e-01
  -4.7363300e-01
  -4.7363300e-01
  -4.8339800e-01
  -5.0781300e-01
  -5.4199200e-01
  -5.7617200e-01
  -6.1035200e-01
  -6.3964800e-01
  -6.5918000e-01
  -6.6894500e-01
  -6.6406300e-01
  -6.4453100e-01
  -6.1035200e-01
  -5.7128900e-01
  -5.2246100e-01
  -4.7363300e-01
  -4.3457000e-01
  -4.0039100e-01
  -3.7597700e-01
  -3.5644500e-01
  -3.3691400e-01
  -3.1738300e-01
  -2.9296900e-01
  -2.6367200e-01
  -2.3925800e-01
  -2.1972700e-01
  -2.0507800e-01
  -1.9531300e-01
  -1.8066400e-01
  -1.6113300e-01
  -1.2695300e-01
  -7.8125000e-02
  -2.9296900e-02
   1.9531300e-02
   5.8593800e-02
   8.3007800e-02
   9.2773400e-02
   9.2773400e-02
   8.7890600e-02
   7.8125000e-02
   7.8125000e-02
   9.2773400e-02
   1.3671900e-01
   1.5625000e-01
   2.2460900e-01
   2.8320300e-01
   3.4668000e-01
   3.7109400e-01
   4.0527300e-01
   4.3457000e-01
   4.5898400e-01
   4.3945300e-01
   3.9062500e-01
   4.1503900e-01
   3.5644500e-01
   3.2226600e-01
   3.1250000e-01
   3.5156300e-01
   3.0761700e-01
   3.4668000e-01
   3.6132800e-01
   3.9062500e-01
   4.2968800e-01
   4.4433600e-01
   5.0781300e-01
   5.6640600e-01
   5.4199200e-01
   5.9570300e-01
   5.9082000e-01
   6.0546900e-01
   6.3964800e-01
   6.2011700e-01
   6.3476600e-01
   5.9082000e-01
   6.2988300e-01
   6.1035200e-01
   6.0546900e-01
   5.5175800e-01
   5.7128900e-01
   5.4199200e-01
   5.5175800e-01
   4.9804700e-01
   5.3222700e-01
   5.0293000e-01
   5.0781300e-01
   4.6875000e-01
   4.4433600e-01
   4.2968800e-01
   4.1015600e-01
   3.9550800e-01
   4.3945300e-01
   4.3945300e-01
   3.9550800e-01
   4.5898400e-01
   4.2968800e-01
   4.9316400e-01
   4.7851600e-01
   4.8339800e-01
   5.0781300e-01
   4.2968800e-01
   4.1015600e-01
   3.6132800e-01
   3.7597700e-01
   3.2226600e-01
   3.0273400e-01
   2.6855500e-01
   2.0019500e-01
   2.3925800e-01
   2.3437500e-01
   1.7578100e-01
   2.0019500e-01
   1.6113300e-01
   1.5625000e-01
   1.7578100e-01
   1.6601600e-01
   9.2773400e-02
   5.3710900e-02
   2.4414100e-02
   9.7656300e-03
  -3.4179700e-02
  -7.3242200e-02
  -7.3242200e-02
  -1.3671900e-01
  -1.7578100e-01
  -2.0507800e-01
  -2.3437500e-01
  -2.4414100e-01
  -2.6367200e-01
  -2.7832000e-01
  -3.0273400e-01
  -3.2714800e-01
  -3.6132800e-01
  -4.0039100e-01
  -4.2968800e-01
  -4.4921900e-01
  -4.6875000e-01
  -4.6386700e-01
  -4.6875000e-01
  -4.5410200e-01
  -4.5898400e-01
  -4.6386700e-01
  -4.7363300e-01
  -4.8828100e-01
  -5.0781300e-01
  -5.2734400e-01
  -5.5664100e-01
  -5.8105500e-01
  -6.1523400e-01
  -6.5429700e-01
  -6.9335900e-01
  -7.2753900e-01
  -7.6660200e-01
  -7.9589800e-01
  -8.2519500e-01
  -8.3984400e-01
  -8.4472700e-01
  -8.3496100e-01
  -8.2031300e-01
  -7.8613300e-01
  -7.5195300e-01
  -7.1777300e-01
  -6.9335900e-01
  -6.7382800e-01
  -6.5429700e-01
  -6.3476600e-01
  -6.2011700e-01
  -6.1035200e-01
  -5.9082000e-01
  -5.7128900e-01
  -5.4687500e-01
  -5.2246100e-01
  -4.9804700e-01
  -4.6875000e-01
  -4.4433600e-01
  -4.2480500e-01
  -4.1503900e-01
  -4.1015600e-01
  -4.0527300e-01
  -4.0039100e-01
  -4.0039100e-01
  -3.9550800e-01
  -3.9550800e-01
  -4.0527300e-01
  -4.1503900e-01
  -4.2968800e-01
  -4.4921900e-01
  -4.6875000e-01
  -4.8339800e-01
  -4.9804700e-01
  -5.0781300e-01
  -5.1757800e-01
  -5.1269500e-01
  -5.0293000e-01
  -4.7851600e-01
  -4.4433600e-01
  -4.0527300e-01
  -3.6132800e-01
  -3.1738300e-01
  -2.7343800e-01
  -2.2949200e-01
  -1.9531300e-01
  -1.6113300e-01
  -1.2695300e-01
  -9.7656300e-02
  -6.8359400e-02
  -4.3945300e-02
  -1.9531300e-02
   4.8828100e-03
   1.4648400e-02
   2.4414100e-02
   2.9296900e-02
   3.9062500e-02
   5.3710900e-02
   6.8359400e-02
   1.1718800e-01
   1.4160200e-01
   1.5136700e-01
   1.9043000e-01
   1.8554700e-01
   1.8554700e-01
   2.1972700e-01
   2.3925800e-01
   2.3437500e-01
   2.0996100e-01
   2.4902300e-01
   2.4414100e-01
   2.7832000e-01
   3.8574200e-01
   4.3945300e-01
   5.0781300e-01
   5.3710900e-01
   5.8593800e-01
   6.3476600e-01
   6.0546900e-01
   6.2011700e-01
   6.2500000e-01
   5.7617200e-01
   5.9082000e-01
   6.3476600e-01
   6.1035200e-01
   5.9570300e-01
   6.4453100e-01
   6.2988300e-01
   6.3476600e-01
   6.4453100e-01
   6.1523400e-01
   5.9082000e-01
   5.2734400e-01
   4.9316400e-01
   5.3710900e-01
   5.2734400e-01
   4.5898400e-01
   4.4921900e-01
   4.8339800e-01
   4.0527300e-01
   3.7597700e-01
   3.7597700e-01
   2.9785200e-01
   2.8320300e-01
   2.6367200e-01
   2.7832000e-01
   3.1250000e-01
   3.4179700e-01
   3.4179700e-01
   4.0039100e-01
   4.1992200e-01
   4.0527300e-01
   3.6621100e-01
   3.7597700e-01
   3.5156300e-01
   3.6621100e-01
   2.9785200e-01
   3.1738300e-01
   3.0761700e-01
   2.7343800e-01
   2.8320300e-01
   2.6855500e-01
   2.0019500e-01
   2.2460900e-01
   1.4648400e-01
   1.2207000e-01
   7.3242200e-02
   2.4414100e-02
  -5.3710900e-02
  -1.1718800e-01
  -1.4648400e-01
  -1.8554700e-01
  -2.0507800e-01
  -2.2460900e-01
  -2.4902300e-01
  -2.6855500e-01
  -2.8808600e-01
  -3.0273400e-01
  -3.1738300e-01
  -3.3691400e-01
  -3.5156300e-01
  -3.6621100e-01
  -3.7597700e-01
  -3.8085900e-01
  -3.8574200e-01
  -3.8085900e-01
  -3.7597700e-01
  -3.6132800e-01
  -3.5644500e-01
  -3.4668000e-01
  -3.5644500e-01
  -3.7597700e-01
  -4.1015600e-01
  -4.5898400e-01
  -5.0293000e-01
  -5.4687500e-01
  -5.9082000e-01
  -6.2011700e-01
  -6.4453100e-01
  -6.5429700e-01
  -6.5918000e-01
  -6.4941400e-01
  -6.3476600e-01
  -6.1523400e-01
  -6.0058600e-01
  -5.8593800e-01
  -5.8105500e-01
  -5.8105500e-01
  -5.9082000e-01
  -6.0546900e-01
  -6.2011700e-01
  -6.3964800e-01
  -6.5429700e-01
  -6.7382800e-01
  -6.8847700e-01
  -6.9824200e-01
  -7.0312500e-01
  -7.1289100e-01
  -7.1777300e-01
  -7.1777300e-01
  -7.1289100e-01
  -6.9824200e-01
  -6.8359400e-01
  -6.5918000e-01
  -6.3964800e-01
  -6.2500000e-01
  -6.1035200e-01
  -6.0546900e-01
  -6.0058600e-01
  -6.1035200e-01
  -6.1523400e-01
  -6.2011700e-01
  -6.2500000e-01
  -6.2500000e-01
  -6.1035200e-01
  -5.9082000e-01
  -5.6640600e-01
  -5.2734400e-01
  -4.8828100e-01
  -4.4921900e-01
  -4.0039100e-01
  -3.6621100e-01
  -3.4179700e-01
  -3.2714800e-01
  -3.2226600e-01
  -3.1738300e-01
  -3.1250000e-01
  -2.9296900e-01
  -2.5390600e-01
  -2.0507800e-01
  -1.4160200e-01
  -6.8359400e-02
  -4.8828100e-03
   4.8828100e-02
   8.3007800e-02
   9.7656300e-02
   8.3007800e-02
   1.0742200e-01
   6.8359400e-02
   5.3710900e-02
   7.8125000e-02
   4.8828100e-02
   8.7890600e-02
   1.0253900e-01
   7.3242200e-02
   1.2207000e-01
   1.5625000e-01
   1.9531300e-01
   1.8554700e-01
   2.4414100e-01
   2.7832000e-01
   2.6855500e-01
   2.8808600e-01
   2.7343800e-01
   2.9785200e-01
   3.2714800e-01
   3.1738300e-01
   3.9062500e-01
   3.9550800e-01
   4.4921900e-01
   5.0781300e-01
   5.4199200e-01
   6.1035200e-01
   6.2500000e-01
   6.0058600e-01
   6.5429700e-01
   6.0546900e-01
   6.1523400e-01
   6.2500000e-01
   6.1035200e-01
   5.7128900e-01
   5.4199200e-01
   5.8105500e-01
   5.9082000e-01
   5.7617200e-01
   6.0058600e-01
   6.3476600e-01
   5.9082000e-01
   6.2011700e-01
   6.2988300e-01
   6.1035200e-01
   6.4453100e-01
   6.5918000e-01
   6.2011700e-01
   6.6406300e-01
   5.9570300e-01
   6.4453100e-01
   5.9082000e-01
   5.6640600e-01
   5.8105500e-01
   5.8105500e-01
   5.5175800e-01
   5.5175800e-01
   5.2246100e-01
   4.8828100e-01
   4.6386700e-01
   4.4921900e-01
   4.2480500e-01
   4.0527300e-01
   4.2968800e-01
   4.0039100e-01
   4.1992200e-01
   4.2480500e-01
   3.4668000e-01
   3.0761700e-01
   2.7832000e-01
   2.2949200e-01
   2.3437500e-01
   2.1484400e-01
   2.0019500e-01
   1.9043000e-01
   1.6113300e-01
   1.5136700e-01
   1.8554700e-01
   1.3671900e-01
   1.2207000e-01
   8.7890600e-02
   4.8828100e-02
  -4.8828100e-03
  -7.8125000e-02
  -1.0742200e-01
  -9.2773400e-02
  -1.0742200e-01
  -1.1230500e-01
  -1.1230500e-01
  -1.5625000e-01
  -1.3183600e-01
  -1.8554700e-01
  -2.2949200e-01
  -2.5390600e-01
  -2.8808600e-01
  -3.2226600e-01
  -3.4179700e-01
  -3.5156300e-01
  -3.6132800e-01
  -3.6132800e-01
  -3.7109400e-01
  -3.7109400e-01
  -3.7109400e-01
  -3.8085900e-01
  -3.9062500e-01
  -3.9062500e-01
  -4.0039100e-01
  -4.1503900e-01
  -4.2968800e-01
  -4.4921900e-01
  -4.6386700e-01
  -4.8339800e-01
  -4.9316400e-01
  -5.0781300e-01
  -5.1757800e-01
  -5.4199200e-01
  -5.7128900e-01
  -6.0546900e-01
  -6.3964800e-01
  -6.6894500e-01
  -6.9335900e-01
  -6.9824200e-01
  -6.8847700e-01
  -6.6894500e-01
  -6.4453100e-01
  -6.2500000e-01
  -6.1035200e-01
  -5.9570300e-01
  -5.9570300e-01
  -5.9570300e-01
  -6.0058600e-01
  -5.9570300e-01
  -5.9082000e-01
  -5.8105500e-01
  -5.6640600e-01
  -5.4199200e-01
  -5.0293000e-01
  -4.5898400e-01
  -4.1015600e-01
  -3.6621100e-01
  -3.3203100e-01
  -3.1738300e-01
  -3.0761700e-01
  -3.0273400e-01
  -3.0273400e-01
  -3.0761700e-01
  -3.0273400e-01
  -3.0273400e-01
  -3.0273400e-01
  -3.1250000e-01
  -3.2714800e-01
  -3.4668000e-01
  -3.6132800e-01
  -3.7109400e-01
  -3.8574200e-01
  -3.9550800e-01
  -4.0527300e-01
  -4.0527300e-01
  -4.0039100e-01
  -3.9062500e-01
  -3.6621100e-01
  -3.2714800e-01
  -2.8808600e-01
  -2.3925800e-01
  -1.9043000e-01
  -1.4648400e-01
  -1.0253900e-01
  -6.3476600e-02
  -3.4179700e-02
  -4.8828100e-03
   1.9531300e-02
   4.3945300e-02
   6.3476600e-02
   7.3242200e-02
   8.7890600e-02
   1.3671900e-01
   1.5136700e-01
   1.6601600e-01
   1.5625000e-01
   1.7089800e-01
   1.8066400e-01
   2.3437500e-01
   2.0019500e-01
   2.3925800e-01
   2.5390600e-01
   2.8320300e-01
   2.6855500e-01
   3.4179700e-01
   3.5156300e-01
   3.7109400e-01
   4.1015600e-01
   3.7597700e-01
   3.7597700e-01
   3.9062500e-01
   4.0039100e-01
   4.1015600e-01
   4.1015600e-01
   4.1503900e-01
   4.1992200e-01
   4.1015600e-01
   4.7363300e-01
   4.8339800e-01
   5.4199200e-01
   5.8105500e-01
   6.0546900e-01
   6.3964800e-01
   6.3964800e-01
   6.3476600e-01
   6.7871100e-01
   6.2011700e-01
   6.3476600e-01
   5.9570300e-01
   6.3476600e-01
   6.0058600e-01
   5.7617200e-01
   5.7617200e-01
   5.9082000e-01
   5.4199200e-01
   5.4199200e-01
   5.0781300e-01
   4.6875000e-01
   4.1015600e-01
   3.7109400e-01
   3.5644500e-01
   3.6132800e-01
   3.2226600e-01
   3.1738300e-01
   2.5390600e-01
   2.6367200e-01
   2.8808600e-01
   2.5878900e-01
   2.9296900e-01
   2.7832000e-01
   2.9296900e-01
   3.0273400e-01
   3.6132800e-01
   3.0273400e-01
   3.1738300e-01
   2.6855500e-01
   2.3925800e-01
   2.2460900e-01
   1.8066400e-01
   2.1972700e-01
   2.0507800e-01
   1.9043000e-01
   2.2460900e-01
   1.6601600e-01
   1.3183600e-01
   6.8359400e-02
   0.0000000e+00
  -4.3945300e-02
  -9.2773400e-02
  -1.4648400e-01
  -1.7089800e-01
  -2.0507800e-01
  -2.3437500e-01
  -2.4902300e-01
  -2.6855500e-01
  -2.8808600e-01
  -3.1738300e-01
  -3.4668000e-01
  -3.8085900e-01
  -4.1992200e-01
  -4.5898400e-01
  -5.0293000e-01
  -5.3710900e-01
  -5.6640600e-01
  -5.8105500e-01
  -5.8593800e-01
  -5.6640600e-01
  -5.3222700e-01
  -5.2246100e-01
  -5.0781300e-01
  -5.0781300e-01
  -5.2246100e-01
  -5.4199200e-01
  -5.6640600e-01
  -5.8105500e-01
  -5.8593800e-01
  -5.8105500e-01
  -5.7617200e-01
  -5.5664100e-01
  -5.3710900e-01
  -5.3222700e-01
  -5.3710900e-01
  -5.5664100e-01
  -5.9570300e-01
  -6.2988300e-01
  -6.6406300e-01
  -6.9335900e-01
  -7.0312500e-01
  -6.9824200e-01
  -6.7871100e-01
  -6.5918000e-01
  -6.3476600e-01
  -6.0546900e-01
  -5.8105500e-01
  -5.7128900e-01
  -5.6640600e-01
  -5.7128900e-01
  -5.7128900e-01
  -5.7617200e-01
  -5.8105500e-01
  -5.8593800e-01
  -5.9082000e-01
  -5.8593800e-01
  -5.9082000e-01
  -5.8105500e-01
  -5.7128900e-01
  -5.5175800e-01
  -5.2734400e-01
  -5.0293000e-01
  -4.7363300e-01
  -4.3945300e-01
  -4.0527300e-01
  -3.7597700e-01
  -3.4179700e-01
  -3.1738300e-01
  -2.9785200e-01
  -2.9785200e-01
  -3.0273400e-01
  -3.0273400e-01
  -3.0761700e-01
  -3.1250000e-01
  -3.0761700e-01
  -2.9296900e-01
  -2.6855500e-01
  -2.3925800e-01
  -2.0507800e-01
  -1.7089800e-01
  -1.3671900e-01
  -1.0742200e-01
  -7.3242200e-02
  -4.3945300e-02
  -4.8828100e-03
   2.4414100e-02
   5.8593800e-02
   9.2773400e-02
   1.2695300e-01
   1.6601600e-01
   1.8554700e-01
   1.9043000e-01
   1.8554700e-01
   1.9531300e-01
   2.0996100e-01
   2.4902300e-01
   2.8320300e-01
   3.4668000e-01
   3.9550800e-01
   3.9062500e-01
   4.3457000e-01
   5.2246100e-01
   5.4199200e-01
   5.8105500e-01
   6.1523400e-01
   6.2500000e-01
   6.7871100e-01
   6.1523400e-01
   6.4941400e-01
   5.9082000e-01
   6.2988300e-01
   6.1523400e-01
   5.7128900e-01
   5.4199200e-01
   5.9570300e-01
   5.6640600e-01
   6.2500000e-01
   6.4453100e-01
   7.3242200e-01
   7.9589800e-01
   8.2519500e-01
   8.6425800e-01
   8.9355500e-01
   9.8144500e-01
   1.0058600e+00
   1.0107400e+00
   1.0009800e+00
   9.9121100e-01
   9.8632800e-01
   9.8632800e-01
   9.9121100e-01
   9.8144500e-01
   9.1308600e-01
   9.2773400e-01
   8.7890600e-01
   8.5937500e-01
   8.2031300e-01
   8.2519500e-01
   7.5195300e-01
   7.6171900e-01
   7.6660200e-01
   7.4218800e-01
   6.9335900e-01
   7.3730500e-01
   6.5918000e-01
   6.9335900e-01
   6.7382800e-01
   6.2500000e-01
   6.6406300e-01
   6.0546900e-01
   6.4453100e-01
   5.8593800e-01
   6.4453100e-01
   6.0546900e-01
   6.2988300e-01
   6.1523400e-01
   6.3476600e-01
   6.1035200e-01
   5.6152300e-01
   5.5175800e-01
   5.3222700e-01
   4.2480500e-01
   3.6132800e-01
   3.0761700e-01
   2.4414100e-01
   1.2207000e-01
   5.8593800e-02
  -2.4414100e-02
  -1.0253900e-01
  -1.9531300e-01
  -2.3925800e-01
  -2.7343800e-01
  -2.9296900e-01
  -2.9785200e-01
  -2.9785200e-01
  -2.9296900e-01
  -2.9785200e-01
  -3.1738300e-01
  -3.5644500e-01
  -4.0039100e-01
  -4.5410200e-01
  -5.0781300e-01
  -5.5664100e-01
  -6.0546900e-01
  -6.3476600e-01
  -6.5429700e-01
  -6.6406300e-01
  -6.6406300e-01
  -6.5429700e-01
  -6.5429700e-01
  -6.3964800e-01
  -6.3476600e-01
  -6.3476600e-01
  -6.4941400e-01
  -6.7871100e-01
  -7.3730500e-01
  -8.1543000e-01
  -9.0820300e-01
  -1.0156300e+00
  -1.1230500e+00
  -1.2255900e+00
  -1.3085900e+00
  -1.3720700e+00
  -1.4062500e+00
  -1.4209000e+00
  -1.4111300e+00
  -1.3916000e+00
  -1.3671900e+00
  -1.3378900e+00
  -1.3183600e+00
  -1.2939500e+00
  -1.2793000e+00
  -1.2695300e+00
  -1.2646500e+00
  -1.2548800e+00
  -1.2500000e+00
  -1.2500000e+00
  -1.2548800e+00
  -1.2646500e+00
  -1.2793000e+00
  -1.2890600e+00
  -1.3037100e+00
  -1.3085900e+00
  -1.3085900e+00
  -1.3085900e+00
  -1.2988300e+00
  -1.2890600e+00
  -1.2744100e+00
  -1.2597700e+00
  -1.2451200e+00
  -1.2304700e+00
  -1.2158200e+00
  -1.2060500e+00
  -1.1962900e+00
  -1.2060500e+00
  -1.2109400e+00
  -1.2158200e+00
  -1.2255900e+00
  -1.2353500e+00
  -1.2304700e+00
  -1.2304700e+00
  -1.2255900e+00
  -1.2158200e+00
  -1.2011700e+00
  -1.1865200e+00
  -1.1621100e+00
  -1.1425800e+00
  -1.1230500e+00
  -1.0937500e+00
  -1.0742200e+00
  -1.0449200e+00
  -1.0205100e+00
  -9.8632800e-01
  -9.5703100e-01
  -9.2773400e-01
  -8.9843800e-01
  -8.7402300e-01
  -8.4472700e-01
  -8.1543000e-01
  -7.8125000e-01
  -7.5195300e-01
  -7.1777300e-01
  -6.8847700e-01
  -6.6894500e-01
  -6.4941400e-01
  -6.3964800e-01
  -6.2988300e-01
  -6.2011700e-01
  -6.0546900e-01
  -5.8593800e-01
  -5.7128900e-01
  -5.5175800e-01
  -5.2246100e-01
  -5.0781300e-01
  -4.7363300e-01
  -4.4921900e-01
  -4.1992200e-01
  -3.9550800e-01
  -3.6132800e-01
  -3.3203100e-01
  -2.9785200e-01
  -2.6367200e-01
  -2.2460900e-01
  -1.7089800e-01
  -1.1230500e-01
  -5.3710900e-02
   4.8828100e-03
   4.3945300e-02
   7.8125000e-02
   9.2773400e-02
   8.3007800e-02
   1.0253900e-01
   1.3183600e-01
   1.3671900e-01
   1.7578100e-01
   1.6113300e-01
   1.8066400e-01
   2.5390600e-01
   2.5390600e-01
   2.2949200e-01
   2.6855500e-01
   2.4414100e-01
   2.8808600e-01
   3.3691400e-01
   3.4668000e-01
   3.9550800e-01
   4.3945300e-01
   4.7851600e-01
   5.1757800e-01
   5.2246100e-01
   5.3222700e-01
   5.2246100e-01
   4.4921900e-01
   4.8339800e-01
   4.1015600e-01
   4.5410200e-01
   3.9550800e-01
   3.8574200e-01
   3.9550800e-01
   4.0527300e-01
   4.2480500e-01
   4.1015600e-01
   4.7363300e-01
   4.7363300e-01
   4.4433600e-01
   4.4921900e-01
   5.1757800e-01
   4.8828100e-01
   5.4199200e-01
   5.6640600e-01
   6.5429700e-01
   6.3964800e-01
   6.8847700e-01
   7.1289100e-01
   6.8847700e-01
   7.0312500e-01
   6.1523400e-01
   6.2011700e-01
   5.3222700e-01
   4.9316400e-01
   4.9316400e-01
   4.7851600e-01
   4.2480500e-01
   4.3457000e-01
   4.1992200e-01
   3.7109400e-01
   3.9062500e-01
   3.6621100e-01
   3.1738300e-01
   3.1250000e-01
   3.5156300e-01
   3.4668000e-01
   3.1738300e-01
   3.6621100e-01
   3.8574200e-01
   4.0039100e-01
   4.1992200e-01
   4.2968800e-01
   4.2968800e-01
   3.5156300e-01
   3.6132800e-01
   3.3691400e-01
   3.2714800e-01
   3.3203100e-01
   3.4668000e-01
   3.7109400e-01
   4.1992200e-01
   4.3945300e-01
   4.8339800e-01
   4.4921900e-01
   5.1757800e-01
   4.5898400e-01
   4.4433600e-01
   4.2480500e-01
   4.0039100e-01
   3.8085900e-01
   3.2226600e-01
   3.3203100e-01
   2.9296900e-01
   3.0761700e-01
   2.5878900e-01
   2.6855500e-01
   2.6367200e-01
   2.8320300e-01
   2.7343800e-01
   2.3437500e-01
   2.3925800e-01
   2.8808600e-01
   2.8808600e-01
   3.7109400e-01
   4.1503900e-01
   4.2968800e-01
   4.7363300e-01
   4.6386700e-01
   5.1757800e-01
   4.6875000e-01
   4.2480500e-01
   4.2968800e-01
   3.6132800e-01
   3.6621100e-01
   3.0761700e-01
   3.4179700e-01
   3.4668000e-01
   3.0273400e-01
   3.4668000e-01
   3.0761700e-01
   3.8085900e-01
   3.6132800e-01
   4.2968800e-01
   4.5410200e-01
   4.4921900e-01
   4.6875000e-01
   4.1015600e-01
   4.6386700e-01
   4.1015600e-01
   4.3945300e-01
   4.6386700e-01
   5.0781300e-01
   5.3710900e-01
   5.9570300e-01
   6.7871100e-01
   7.1289100e-01
   7.6171900e-01
   8.0078100e-01
   8.5449200e-01
   8.6914100e-01
   8.7890600e-01
   8.4960900e-01
   8.2519500e-01
   8.2519500e-01
   8.1054700e-01
   7.9101600e-01
   7.9101600e-01
   8.1543000e-01
   9.0332000e-01
   9.4726600e-01
   1.0009800e+00
   1.0156300e+00
   1.0791000e+00
   1.1523400e+00
   1.2060500e+00
   1.2011700e+00
   1.1914100e+00
   1.1816400e+00
   1.1230500e+00
   1.1377000e+00
   1.0693400e+00
   1.1132800e+00
   1.1181600e+00
   1.1669900e+00
   1.1621100e+00
   1.1669900e+00
   1.1816400e+00
   1.2011700e+00
   1.2109400e+00
   1.2207000e+00
   1.2255900e+00
   1.1962900e+00
   1.1865200e+00
   1.2207000e+00
   1.2451200e+00
   1.2060500e+00
   1.1816400e+00
   1.2011700e+00
   1.2255900e+00
   1.2353500e+00
   1.2011700e+00
   1.1865200e+00
   1.2158200e+00
   1.2255900e+00
   1.2060500e+00
   1.1669900e+00
   1.0888700e+00
   1.0839800e+00
   1.0400400e+00
   1.0009800e+00
   9.6191400e-01
   9.2285200e-01
   9.5703100e-01
   9.1796900e-01
   9.1308600e-01
   8.6914100e-01
   8.5937500e-01
   8.3496100e-01
   8.7890600e-01
   8.2519500e-01
   8.1054700e-01
   8.0566400e-01
   7.7636700e-01
   7.4218800e-01
   6.9824200e-01
   6.5918000e-01
   6.4941400e-01
   6.0058600e-01
   5.6640600e-01
   5.5664100e-01
   4.9804700e-01
   4.5410200e-01
   4.3457000e-01
   3.2714800e-01
   2.9785200e-01
   1.7578100e-01
   1.1718800e-01
   2.4414100e-02
  -3.4179700e-02
  -1.3183600e-01
  -1.6601600e-01
  -2.2460900e-01
  -2.7343800e-01
  -3.1250000e-01
  -3.3691400e-01
  -3.6132800e-01
  -3.7109400e-01
  -3.7597700e-01
  -3.7597700e-01
  -3.7597700e-01
  -3.8574200e-01
  -4.0039100e-01
  -4.2480500e-01
  -4.6875000e-01
  -5.2246100e-01
  -5.8105500e-01
  -6.3964800e-01
  -6.8847700e-01
  -7.3242200e-01
  -7.9101600e-01
  -8.3007800e-01
  -8.7890600e-01
  -9.0820300e-01
  -9.3261700e-01
  -9.4726600e-01
  -9.5703100e-01
  -9.6191400e-01
  -9.6679700e-01
  -9.8144500e-01
  -9.9609400e-01
  -1.0205100e+00
  -1.0498000e+00
  -1.0839800e+00
  -1.1230500e+00
  -1.1669900e+00
  -1.2158200e+00
  -1.2695300e+00
  -1.3134800e+00
  -1.3476600e+00
  -1.3769500e+00
  -1.3916000e+00
  -1.3964800e+00
  -1.3964800e+00
  -1.3916000e+00
  -1.3867200e+00
  -1.3818400e+00
  -1.3671900e+00
  -1.3525400e+00
  -1.3330100e+00
  -1.3085900e+00
  -1.2890600e+00
  -1.2744100e+00
  -1.2695300e+00
  -1.2793000e+00
  -1.2890600e+00
  -1.2939500e+00
  -1.2890600e+00
  -1.2793000e+00
  -1.2744100e+00
  -1.2695300e+00
  -1.2646500e+00
  -1.2646500e+00
  -1.2646500e+00
  -1.2548800e+00
  -1.2402300e+00
  -1.2158200e+00
  -1.1865200e+00
  -1.1621100e+00
  -1.1328100e+00
  -1.1035200e+00
  -1.0791000e+00
  -1.0644500e+00
  -1.0644500e+00
  -1.0742200e+00
  -1.0937500e+00
  -1.1181600e+00
  -1.1474600e+00
  -1.1718800e+00
  -1.1962900e+00
  -1.2109400e+00
  -1.2158200e+00
  -1.2011700e+00
  -1.1718800e+00
  -1.1328100e+00
  -1.0742200e+00
  -1.0156300e+00
  -9.5214800e-01
  -8.9355500e-01
  -8.4472700e-01
  -8.0566400e-01
  -7.6660200e-01
  -7.2753900e-01
  -6.9824200e-01
  -6.6406300e-01
  -6.2988300e-01
  -6.0058600e-01
  -5.6152300e-01
  -5.2246100e-01
  -4.7851600e-01
  -4.3945300e-01
  -4.0527300e-01
  -3.8574200e-01
  -3.5644500e-01
  -3.4668000e-01
  -3.1738300e-01
  -2.9785200e-01
  -2.6855500e-01
  -2.2949200e-01
  -1.9531300e-01
  -1.6601600e-01
  -1.4160200e-01
  -1.2207000e-01
  -1.0742200e-01
  -1.0253900e-01
  -1.0742200e-01
  -1.1230500e-01
  -1.2207000e-01
  -1.3183600e-01
  -1.3671900e-01
  -1.3671900e-01
  -1.2207000e-01
  -1.0253900e-01
  -7.8125000e-02
  -4.8828100e-02
  -1.4648400e-02
   9.7656300e-03
   3.4179700e-02
   6.3476600e-02
   8.3007800e-02
   9.2773400e-02
   1.1230500e-01
   1.1718800e-01
   1.2695300e-01
   7.3242200e-02
   6.8359400e-02
   4.8828100e-02
   8.3007800e-02
   3.4179700e-02
   2.4414100e-02
  -4.8828100e-03
  -3.4179700e-02
  -2.4414100e-02
  -1.4648400e-02
  -5.8593800e-02
  -2.4414100e-02
   0.0000000e+00
   4.8828100e-03
   1.4648400e-02
   1.9531300e-02
   2.9296900e-02
   3.9062500e-02
   5.8593800e-02
   4.3945300e-02
   1.9531300e-02
   4.8828100e-02
   0.0000000e+00
  -4.8828100e-03
  -4.3945300e-02
  -4.8828100e-02
  -8.7890600e-02
  -1.1718800e-01
  -1.0742200e-01
  -1.3671900e-01
  -1.6113300e-01
  -1.5625000e-01
  -2.2460900e-01
  -2.8808600e-01
  -3.5156300e-01
  -4.1015600e-01
  -4.6386700e-01
  -5.0293000e-01
  -5.2734400e-01
  -5.4199200e-01
  -5.5175800e-01
  -5.6640600e-01
  -5.8105500e-01
  -5.9082000e-01
  -6.0058600e-01
  -6.0546900e-01
  -6.0546900e-01
  -6.0058600e-01
  -5.9570300e-01
  -5.9570300e-01
  -6.0058600e-01
  -6.0058600e-01
  -5.9570300e-01
  -5.7617200e-01
  -5.7617200e-01
  -5.6640600e-01
  -5.7128900e-01
  -5.7128900e-01
  -5.9082000e-01
  -6.2011700e-01
  -6.5429700e-01
  -6.9824200e-01
  -7.4218800e-01
  -7.8613300e-01
  -8.2031300e-01
  -8.4960900e-01
  -8.6425800e-01
  -8.6914100e-01
  -8.5937500e-01
  -8.3984400e-01
  -8.1543000e-01
  -7.9101600e-01
  -7.8125000e-01
  -7.7636700e-01
  -7.7636700e-01
  -7.8125000e-01
  -7.8125000e-01
  -7.8125000e-01
  -7.7636700e-01
  -7.7636700e-01
  -7.7636700e-01
  -7.7636700e-01
  -7.7636700e-01
  -7.7148400e-01
  -7.7148400e-01
  -7.6171900e-01
  -7.4707000e-01
  -7.2265600e-01
  -6.9335900e-01
  -6.5429700e-01
  -6.0546900e-01
  -5.4687500e-01
  -4.9316400e-01
  -4.4921900e-01
  -4.1015600e-01
  -3.8085900e-01
  -3.6621100e-01
  -3.5644500e-01
  -3.6132800e-01
  -3.7109400e-01
  -3.8574200e-01
  -4.0039100e-01
  -4.1503900e-01
  -4.3457000e-01
  -4.4433600e-01
  -4.3945300e-01
  -4.2480500e-01
  -3.9550800e-01
  -3.6132800e-01
  -3.2226600e-01
  -2.9296900e-01
  -2.7343800e-01
  -2.6367200e-01
  -2.5878900e-01
  -2.4902300e-01
  -2.3925800e-01
  -2.1972700e-01
  -1.9043000e-01
  -1.5136700e-01
  -1.0742200e-01
  -6.8359400e-02
  -2.4414100e-02
   1.4648400e-02
   5.3710900e-02
   1.0253900e-01
   1.2207000e-01
   1.7578100e-01
   2.7832000e-01
   2.9296900e-01
   3.6621100e-01
   4.1992200e-01
   3.8574200e-01
   4.4921900e-01
   4.7363300e-01
   4.2480500e-01
   4.5410200e-01
   4.0527300e-01
   4.0527300e-01
   3.8574200e-01
   4.0039100e-01
   4.0527300e-01
   4.8339800e-01
   5.0781300e-01
   5.1757800e-01
   5.9082000e-01
   6.0058600e-01
   6.9335900e-01
   7.0312500e-01
   7.6660200e-01
   7.8613300e-01
   7.8125000e-01
   8.2031300e-01
   8.0078100e-01
   8.0078100e-01
   7.7148400e-01
   7.0800800e-01
   7.2753900e-01
   7.2753900e-01
   6.9824200e-01
   7.4218800e-01
   7.7148400e-01
   7.7636700e-01
   7.4218800e-01
   6.8847700e-01
   7.1777300e-01
   6.7871100e-01
   6.3476600e-01
   6.6406300e-01
   6.0546900e-01
   6.3964800e-01
   6.3964800e-01
   6.3476600e-01
   7.0312500e-01
   6.6894500e-01
   7.3242200e-01
   6.8847700e-01
   7.3242200e-01
   7.1289100e-01
   6.9335900e-01
   6.5918000e-01
   6.9335900e-01
   6.4941400e-01
   6.4453100e-01
   6.9824200e-01
   6.5429700e-01
   6.5918000e-01
   6.8847700e-01
   6.1523400e-01
   6.3476600e-01
   5.9082000e-01
   5.4199200e-01
   5.6152300e-01
   5.6640600e-01
   5.4687500e-01
   5.9570300e-01
   5.9082000e-01
   6.7382800e-01
   6.1035200e-01
   6.3964800e-01
   5.6152300e-01
   5.2734400e-01
   4.1992200e-01
   3.2714800e-01
   2.8320300e-01
   1.9043000e-01
   1.0742200e-01
   7.8125000e-02
   3.4179700e-02
   2.4414100e-02
  -4.8828100e-03
  -5.8593800e-02
  -3.4179700e-02
  -7.3242200e-02
  -6.3476600e-02
  -6.3476600e-02
  -4.8828100e-03
   1.4648400e-02
   2.9296900e-02
   9.7656300e-03
  -4.8828100e-03
  -1.4648400e-02
  -2.9296900e-02
  -3.4179700e-02
  -1.4648400e-02
  -4.3945300e-02
  -1.9531300e-02
  -6.3476600e-02
  -7.3242200e-02
  -7.3242200e-02
  -1.2695300e-01
  -1.2695300e-01
  -1.7578100e-01
  -2.1484400e-01
  -2.3437500e-01
  -2.6855500e-01
  -2.9785200e-01
  -3.3203100e-01
  -3.6621100e-01
  -3.9550800e-01
  -4.1503900e-01
  -4.3945300e-01
  -4.4921900e-01
  -4.5410200e-01
  -4.4921900e-01
  -4.4433600e-01
  -4.3945300e-01
  -4.3457000e-01
  -4.3457000e-01
  -4.3457000e-01
  -4.3457000e-01
  -4.2968800e-01
  -4.2968800e-01
  -4.1992200e-01
  -4.1015600e-01
  -4.0039100e-01
  -3.9062500e-01
  -3.8574200e-01
  -3.8574200e-01
  -3.9550800e-01
  -4.1015600e-01
  -4.1503900e-01
  -4.1992200e-01
  -4.2480500e-01
  -4.1992200e-01
  -4.0527300e-01
  -3.9062500e-01
  -3.7597700e-01
  -3.6621100e-01
  -3.5644500e-01
  -3.4668000e-01
  -3.2226600e-01
  -2.9785200e-01
  -2.6367200e-01
  -2.1972700e-01
  -1.7578100e-01
  -1.4160200e-01
  -1.2207000e-01
  -1.1230500e-01
  -1.0253900e-01
  -1.0253900e-01
  -1.0253900e-01
  -9.7656300e-02
  -9.2773400e-02
  -8.7890600e-02
  -8.3007800e-02
  -7.3242200e-02
  -4.8828100e-02
  -1.9531300e-02
   2.4414100e-02
   7.3242200e-02
   1.1718800e-01
   1.7089800e-01
   2.1972700e-01
   2.3437500e-01
   2.8320300e-01
   2.7343800e-01
   3.2226600e-01
   3.2226600e-01
   3.0761700e-01
   3.5644500e-01
   3.8085900e-01
   4.8339800e-01
   5.1757800e-01
   5.7617200e-01
   5.6152300e-01
   6.0546900e-01
   6.2500000e-01
   6.0058600e-01
   6.0546900e-01
   5.7617200e-01
   5.4687500e-01
   5.6640600e-01
   6.4941400e-01
   6.2500000e-01
   6.8847700e-01
   7.0312500e-01
   6.6406300e-01
   6.9335900e-01
   6.6894500e-01
   6.0546900e-01
   5.8105500e-01
   5.8105500e-01
   5.6640600e-01
   5.7128900e-01
   6.2500000e-01
   6.2500000e-01
   6.6894500e-01
   6.4941400e-01
   7.3242200e-01
   7.0312500e-01
   7.1777300e-01
   7.2753900e-01
   7.5195300e-01
   7.7636700e-01
   7.9101600e-01
   7.8125000e-01
   7.5195300e-01
   6.8359400e-01
   7.1777300e-01
   6.5429700e-01
   6.2011700e-01
   5.9082000e-01
   5.5175800e-01
   5.7128900e-01
   4.8339800e-01
   4.9316400e-01
   4.7363300e-01
   4.9804700e-01
   4.3457000e-01
   4.7363300e-01
   4.2480500e-01
   4.5410200e-01
   4.1992200e-01
   3.8085900e-01
   4.1503900e-01
   4.0039100e-01
   3.4668000e-01
   3.7109400e-01
   3.4668000e-01
   3.8574200e-01
   3.8085900e-01
   4.4921900e-01
   4.5410200e-01
   4.4921900e-01
   4.2968800e-01
   3.4668000e-01
   3.6621100e-01
   3.2714800e-01
   2.9785200e-01
   2.3925800e-01
   1.9531300e-01
   1.9043000e-01
   1.4648400e-01
   1.1718800e-01
   7.8125000e-02
   5.3710900e-02
  -9.7656300e-03
  -4.3945300e-02
  -1.0253900e-01
  -1.6601600e-01
  -1.9043000e-01
  -2.4414100e-01
  -2.8320300e-01
  -3.0761700e-01
  -3.3203100e-01
  -3.4668000e-01
  -3.5156300e-01
  -3.5644500e-01
  -3.5156300e-01
  -3.3691400e-01
  -3.3691400e-01
  -3.3203100e-01
  -3.3691400e-01
  -3.5644500e-01
  -3.8085900e-01
  -4.1503900e-01
  -4.5410200e-01
  -4.9804700e-01
  -5.3710900e-01
  -5.6152300e-01
  -5.7128900e-01
  -5.7617200e-01
  -5.6640600e-01
  -5.5664100e-01
  -5.5175800e-01
  -5.5664100e-01
  -5.7128900e-01
  -5.9082000e-01
  -6.2011700e-01
  -6.3964800e-01
  -6.5918000e-01
  -6.6894500e-01
  -6.7382800e-01
  -6.7871100e-01
  -6.9335900e-01
  -7.1289100e-01
  -7.3242200e-01
  -7.5683600e-01
  -7.8125000e-01
  -7.9589800e-01
  -7.9589800e-01
  -7.9101600e-01
  -7.8613300e-01
  -7.8125000e-01
  -7.8613300e-01
  -7.9589800e-01
  -8.0078100e-01
  -8.0078100e-01
  -7.8613300e-01
  -7.5683600e-01
  -7.1777300e-01
  -6.6406300e-01
  -6.1035200e-01
  -5.6152300e-01
  -5.2246100e-01
  -4.8828100e-01
  -4.7363300e-01
  -4.6386700e-01
  -4.4921900e-01
  -4.3945300e-01
  -4.2480500e-01
  -4.0527300e-01
  -3.8085900e-01
  -3.5644500e-01
  -3.4179700e-01
  -3.4179700e-01
  -3.4179700e-01
  -3.5156300e-01
  -3.6132800e-01
  -3.7597700e-01
  -3.7597700e-01
  -3.7109400e-01
  -3.5156300e-01
  -3.2714800e-01
  -2.9296900e-01
  -2.4414100e-01
  -2.0019500e-01
  -1.5625000e-01
  -1.1230500e-01
  -6.8359400e-02
  -1.9531300e-02
   2.4414100e-02
   6.8359400e-02
   9.2773400e-02
   1.7089800e-01
   1.9043000e-01
   2.2460900e-01
   1.9043000e-01
   2.0996100e-01
   2.0019500e-01
   1.9043000e-01
   1.9531300e-01
   1.7578100e-01
   1.7578100e-01
   1.5136700e-01
   1.8554700e-01
   1.9531300e-01
   2.7343800e-01
   2.7832000e-01
   3.6132800e-01
   4.4433600e-01
   4.7851600e-01
   5.4687500e-01
   5.7128900e-01
   6.0058600e-01
   6.0546900e-01
   5.4687500e-01
   5.1269500e-01
   4.5898400e-01
   4.7363300e-01
   4.2968800e-01
   4.6386700e-01
   4.4921900e-01
   4.5410200e-01
   5.0293000e-01
   5.4687500e-01
   5.8105500e-01
   5.9570300e-01
   6.2988300e-01
   6.1523400e-01
   6.6406300e-01
   6.2500000e-01
   6.6894500e-01
   6.6894500e-01
   6.1523400e-01
   6.5429700e-01
   5.8105500e-01
   5.5664100e-01
   5.1269500e-01
   5.3222700e-01
   4.8339800e-01
   4.1015600e-01
   4.1992200e-01
   3.9550800e-01
   3.5156300e-01
   3.1738300e-01
   3.5644500e-01
   3.2714800e-01
   2.9785200e-01
   2.7343800e-01
   2.8808600e-01
   2.4414100e-01
   1.4648400e-01
   1.2695300e-01
   7.8125000e-02
   3.9062500e-02
   3.9062500e-02
   9.7656300e-03
   3.9062500e-02
   3.4179700e-02
   9.2773400e-02
   9.2773400e-02
   6.3476600e-02
   6.8359400e-02
   3.9062500e-02
   1.4648400e-02
  -4.8828100e-02
  -8.3007800e-02
  -1.0742200e-01
  -1.5625000e-01
  -2.1484400e-01
  -2.2949200e-01
  -2.4902300e-01
  -2.6367200e-01
  -2.8320300e-01
  -3.0273400e-01
  -3.2226600e-01
  -3.5156300e-01
  -3.7597700e-01
  -4.0527300e-01
  -4.2968800e-01
  -4.4433600e-01
  -4.6875000e-01
  -4.8828100e-01
  -5.1269500e-01
  -5.3222700e-01
  -5.4687500e-01
  -5.4687500e-01
  -5.5175800e-01
  -5.4687500e-01
  -5.4687500e-01
  -5.6640600e-01
  -5.9082000e-01
  -6.2500000e-01
  -6.6406300e-01
  -6.9824200e-01
  -7.1777300e-01
  -7.2265600e-01
  -7.1777300e-01
  -7.0312500e-01
  -6.9824200e-01
  -6.8847700e-01
  -6.9335900e-01
  -7.0312500e-01
  -7.1289100e-01
  -7.2753900e-01
  -7.3730500e-01
  -7.4218800e-01
  -7.5195300e-01
  -7.5195300e-01
  -7.5195300e-01
  -7.4218800e-01
  -7.4218800e-01
  -7.4707000e-01
  -7.5683600e-01
  -7.7636700e-01
  -7.9101600e-01
  -8.1054700e-01
  -8.2031300e-01
  -8.1543000e-01
  -8.0078100e-01
  -7.7636700e-01
  -7.4707000e-01
  -7.1777300e-01
  -6.8847700e-01
  -6.6894500e-01
  -6.4941400e-01
  -6.4453100e-01
  -6.4453100e-01
  -6.4453100e-01
  -6.4941400e-01
  -6.4453100e-01
  -6.3964800e-01
  -6.2011700e-01
  -6.0058600e-01
  -5.8593800e-01
  -5.5664100e-01
  -5.2246100e-01
  -4.8828100e-01
  -4.4921900e-01
  -4.0527300e-01
  -3.5644500e-01
  -3.1250000e-01
  -2.7832000e-01
  -2.3925800e-01
  -2.0996100e-01
  -1.8066400e-01
  -1.6113300e-01
  -1.4648400e-01
  -1.4160200e-01
  -1.4160200e-01
  -1.4648400e-01
  -1.5625000e-01
  -1.6113300e-01
  -1.6601600e-01
  -1.5625000e-01
  -1.4648400e-01
  -1.2695300e-01
  -1.0253900e-01
  -7.3242200e-02
  -4.3945300e-02
  -1.9531300e-02
  -4.8828100e-03
   1.9531300e-02
   3.4179700e-02
   4.8828100e-02
   6.8359400e-02
   8.3007800e-02
   1.2695300e-01
   1.3183600e-01
   1.6601600e-01
   1.5136700e-01
   1.5136700e-01
   1.9531300e-01
   2.0996100e-01
   2.2460900e-01
   2.2949200e-01
   2.7343800e-01
   2.5878900e-01
   2.8808600e-01
   2.7832000e-01
   3.3691400e-01
   3.0761700e-01
   3.6621100e-01
   3.9550800e-01
   4.3457000e-01
   5.1269500e-01
   5.6152300e-01
   5.8105500e-01
   6.5429700e-01
   7.1777300e-01
   7.1777300e-01
   7.1777300e-01
   7.2753900e-01
   7.2265600e-01
   7.4218800e-01
   7.0800800e-01
   7.0800800e-01
   6.2988300e-01
   6.4453100e-01
   6.4941400e-01
   6.1035200e-01
   6.5429700e-01
   6.1523400e-01
   6.6894500e-01
   6.1523400e-01
   6.6894500e-01
   6.9824200e-01
   6.6894500e-01
   7.2753900e-01
   6.6406300e-01
   6.8847700e-01
   6.6406300e-01
   6.0058600e-01
   5.8105500e-01
   4.8339800e-01
   4.6386700e-01
   4.3945300e-01
   3.6621100e-01
   4.0527300e-01
   3.5156300e-01
   3.0761700e-01
   2.9296900e-01
   2.9785200e-01
   2.4902300e-01
   2.2460900e-01
   2.3437500e-01
   1.9043000e-01
   1.7089800e-01
   2.0996100e-01
   2.0996100e-01
   1.7578100e-01
   2.1484400e-01
   1.8066400e-01
   1.8554700e-01
   1.9531300e-01
   2.1972700e-01
   1.3671900e-01
   9.7656300e-02
   2.9296900e-02
  -1.4648400e-02
  -9.2773400e-02
  -1.6113300e-01
  -2.2460900e-01
  -2.6367200e-01
  -3.0273400e-01
  -3.4179700e-01
  -3.8085900e-01
  -4.1503900e-01
  -4.4921900e-01
  -4.8339800e-01
  -5.1757800e-01
  -5.5175800e-01
  -5.8593800e-01
  -6.1035200e-01
  -6.3476600e-01
  -6.4453100e-01
  -6.4941400e-01
  -6.2988300e-01
  -6.1035200e-01
  -5.8105500e-01
  -5.4199200e-01
  -5.1757800e-01
  -5.0781300e-01
  -5.1269500e-01
  -5.3222700e-01
  -5.6152300e-01
  -5.8593800e-01
  -6.1035200e-01
  -6.2011700e-01
  -6.2011700e-01
  -6.1035200e-01
  -6.0058600e-01
  -5.9570300e-01
  -5.9082000e-01
  -5.9570300e-01
  -6.0546900e-01
  -6.1035200e-01
  -6.2011700e-01
  -6.2500000e-01
  -6.2988300e-01
  -6.3964800e-01
  -6.5918000e-01
  -6.7871100e-01
  -7.0312500e-01
  -7.2753900e-01
  -7.5195300e-01
  -7.6660200e-01
  -7.6660200e-01
  -7.6660200e-01
  -7.5683600e-01
  -7.3730500e-01
  -7.1777300e-01
  -6.8847700e-01
  -6.5429700e-01
  -6.2500000e-01
  -6.0058600e-01
  -5.7617200e-01
  -5.6640600e-01
  -5.7128900e-01
  -5.7617200e-01
  -5.8105500e-01
  -5.8593800e-01
  -5.8593800e-01
  -5.8105500e-01
  -5.6152300e-01
  -5.2734400e-01
  -4.9316400e-01
  -4.4921900e-01
  -4.1015600e-01
  -3.8085900e-01
  -3.5644500e-01
  -3.4179700e-01
  -3.2714800e-01
  -3.0273400e-01
  -2.7832000e-01
  -2.4902300e-01
  -2.1972700e-01
  -1.9043000e-01
  -1.6113300e-01
  -1.2695300e-01
  -8.7890600e-02
  -4.8828100e-02
  -4.8828100e-03
   3.9062500e-02
   7.3242200e-02
   9.2773400e-02
   1.3183600e-01
   1.0253900e-01
   1.2207000e-01
   1.3671900e-01
   1.0253900e-01
   1.2207000e-01
   1.7578100e-01
   1.5136700e-01
   1.8554700e-01
   1.5136700e-01
   1.6601600e-01
   2.0996100e-01
   2.0019500e-01
   2.4414100e-01
   2.0019500e-01
   2.5390600e-01
   2.0019500e-01
   2.1972700e-01
   2.0996100e-01
   2.5390600e-01
   2.6367200e-01
   3.5644500e-01
   4.0039100e-01
   4.1015600e-01
   4.2968800e-01
   5.0293000e-01
   5.2734400e-01
   5.2246100e-01
   5.5664100e-01
   5.5175800e-01
   5.2246100e-01
   5.9082000e-01
   5.5175800e-01
   5.5664100e-01
   5.9570300e-01
   5.2734400e-01
   5.0781300e-01
   5.1269500e-01
   4.9804700e-01
   4.4921900e-01
   4.9804700e-01
   4.8828100e-01
   4.8828100e-01
   4.6386700e-01
   4.9316400e-01
   5.0293000e-01
   4.8828100e-01
   5.2246100e-01
   5.0293000e-01
   5.5664100e-01
   5.7128900e-01
   5.4687500e-01
   5.1269500e-01
   5.1269500e-01
   4.7851600e-01
   4.1015600e-01
   4.1503900e-01
   3.3691400e-01
   2.8808600e-01
   2.6367200e-01
   2.0019500e-01
   2.0019500e-01
   1.7089800e-01
   2.2460900e-01
   2.3925800e-01
   1.9531300e-01
   2.3437500e-01
   2.6855500e-01
   2.4414100e-01
   2.7832000e-01
   3.2226600e-01
   3.4179700e-01
   3.4668000e-01
   3.9062500e-01
   4.1015600e-01
   3.8574200e-01
   3.3691400e-01
   2.4902300e-01
   1.9531300e-01
   7.8125000e-02
   3.4179700e-02
  -2.4414100e-02
  -9.2773400e-02
  -7.8125000e-02
  -1.3671900e-01
  -1.0253900e-01
  -1.0742200e-01
  -1.1718800e-01
  -1.5625000e-01
  -1.3671900e-01
  -1.6113300e-01
  -1.8066400e-01
  -2.1484400e-01
  -2.5390600e-01
  -2.7343800e-01
  -2.8808600e-01
  -2.9296900e-01
  -2.8808600e-01
  -2.9296900e-01
  -2.8320300e-01
  -2.9296900e-01
  -2.9296900e-01
  -3.0761700e-01
  -3.1738300e-01
  -3.3203100e-01
  -3.5644500e-01
  -3.7597700e-01
  -4.0527300e-01
  -4.2968800e-01
  -4.5898400e-01
  -4.8339800e-01
  -5.0781300e-01
  -5.3222700e-01
  -5.4687500e-01
  -5.5664100e-01
  -5.6152300e-01
  -5.7617200e-01
  -5.8105500e-01
  -5.8593800e-01
  -6.0058600e-01
  -6.2011700e-01
  -6.3964800e-01
  -6.6406300e-01
  -6.8847700e-01
  -7.1777300e-01
  -7.4218800e-01
  -7.6171900e-01
  -7.6660200e-01
  -7.6660200e-01
  -7.5683600e-01
  -7.3242200e-01
  -7.1289100e-01
  -6.9335900e-01
  -6.7871100e-01
  -6.7382800e-01
  -6.6894500e-01
  -6.7382800e-01
  -6.8359400e-01
  -6.8847700e-01
  -6.9335900e-01
  -6.8847700e-01
  -6.8359400e-01
  -6.6894500e-01
  -6.5429700e-01
  -6.2988300e-01
  -6.0546900e-01
  -5.8105500e-01
  -5.4687500e-01
  -5.1269500e-01
  -4.7851600e-01
  -4.4433600e-01
  -4.2480500e-01
  -4.1015600e-01
  -4.0039100e-01
  -3.9062500e-01
  -3.7597700e-01
  -3.6132800e-01
  -3.3691400e-01
  -3.0761700e-01
  -2.8320300e-01
  -2.5390600e-01
  -2.2460900e-01
  -1.8554700e-01
  -1.4648400e-01
  -9.7656300e-02
  -4.8828100e-02
   4.8828100e-03
   4.8828100e-02
   9.7656300e-02
   1.4160200e-01
   1.6601600e-01
   1.6113300e-01
   1.7089800e-01
   1.7089800e-01
   1.6113300e-01
   2.0019500e-01
   1.9531300e-01
   1.9043000e-01
   2.2460900e-01
   2.1972700e-01
   2.0996100e-01
   2.5390600e-01
   2.6367200e-01
   2.4414100e-01
   2.5878900e-01
   2.9785200e-01
   3.1250000e-01
   3.3691400e-01
   4.3457000e-01
   4.7851600e-01
   5.2734400e-01
   5.7128900e-01
   6.1035200e-01
   7.1289100e-01
   7.4707000e-01
   8.3007800e-01
   8.2519500e-01
   7.9589800e-01
   7.9589800e-01
   7.6171900e-01
   7.5195300e-01
   7.0312500e-01
   7.3242200e-01
   6.4453100e-01
   6.3476600e-01
   5.6152300e-01
   5.6640600e-01
   5.5175800e-01
   5.2246100e-01
   4.9316400e-01
   4.8339800e-01
   5.0781300e-01
   4.6386700e-01
   4.8339800e-01
   5.0293000e-01
   5.1757800e-01
   4.6386700e-01
   4.9804700e-01
   4.3457000e-01
   4.6875000e-01
   4.2968800e-01
   4.5410200e-01
   4.1503900e-01
   4.1992200e-01
   4.1015600e-01
   4.2480500e-01
   3.9062500e-01
   4.1503900e-01
   3.8574200e-01
   3.9062500e-01
   3.4668000e-01
   3.5644500e-01
   3.3203100e-01
   2.9785200e-01
   2.8808600e-01
   2.2460900e-01
   2.0507800e-01
   1.9531300e-01
   2.3437500e-01
   1.9531300e-01
   2.0507800e-01
   2.3925800e-01
   2.1484400e-01
   1.8554700e-01
   1.9043000e-01
   1.6601600e-01
   1.6601600e-01
   1.4160200e-01
   1.2695300e-01
   8.3007800e-02
   4.8828100e-03
  -6.3476600e-02
  -1.2695300e-01
  -1.6113300e-01
  -2.0019500e-01
  -2.3925800e-01
  -2.6367200e-01
  -2.7343800e-01
  -2.8320300e-01
  -2.8808600e-01
  -2.9296900e-01
  -2.9785200e-01
  -3.0761700e-01
  -3.1250000e-01
  -3.1250000e-01
  -3.0273400e-01
  -2.9785200e-01
  -2.7832000e-01
  -2.8320300e-01
  -2.8808600e-01
  -3.0761700e-01
  -3.4179700e-01
  -3.7597700e-01
  -4.1992200e-01
  -4.6386700e-01
  -5.0293000e-01
  -5.4199200e-01
  -5.7617200e-01
  -6.0058600e-01
  -6.2011700e-01
  -6.3476600e-01
  -6.4453100e-01
  -6.5429700e-01
  -6.6894500e-01
  -6.8847700e-01
  -7.1777300e-01
  -7.4218800e-01
  -7.6660200e-01
  -7.7636700e-01
  -7.7636700e-01
  -7.6171900e-01
  -7.4707000e-01
  -7.2753900e-01
  -7.0800800e-01
  -6.9335900e-01
  -6.7382800e-01
  -6.5918000e-01
  -6.4941400e-01
  -6.4453100e-01
  -6.3964800e-01
  -6.3476600e-01
  -6.3964800e-01
  -6.4453100e-01
  -6.3964800e-01
  -6.2500000e-01
  -6.0546900e-01
  -5.8105500e-01
  -5.4687500e-01
  -5.1269500e-01
  -4.7363300e-01
  -4.4433600e-01
  -4.1503900e-01
  -3.9550800e-01
  -3.8085900e-01
  -3.7597700e-01
  -3.7109400e-01
  -3.7597700e-01
  -3.7597700e-01
  -3.8085900e-01
  -3.8574200e-01
  -4.0039100e-01
  -4.1015600e-01
  -4.1015600e-01
  -4.0527300e-01
  -3.8574200e-01
  -3.5644500e-01
  -3.1250000e-01
  -2.6367200e-01
  -2.1484400e-01
  -1.6113300e-01
  -1.0742200e-01
  -5.8593800e-02
  -9.7656300e-03
   3.9062500e-02
   7.8125000e-02
   1.1718800e-01
   1.1230500e-01
   1.4160200e-01
   1.2695300e-01
   1.3183600e-01
   1.3183600e-01
   9.7656300e-02
   8.7890600e-02
   1.3671900e-01
   1.6601600e-01
   1.6601600e-01
   1.3671900e-01
   1.9043000e-01
   1.5625000e-01
   1.7089800e-01
   2.0019500e-01
   1.9043000e-01
   2.1484400e-01
   2.2460900e-01
   2.7343800e-01
   2.7832000e-01
   3.1738300e-01
   3.7109400e-01
   3.9550800e-01
   4.4433600e-01
   4.2968800e-01
   4.8339800e-01
   4.9316400e-01
   5.0293000e-01
   4.9316400e-01
   4.7363300e-01
   4.5410200e-01
   3.7597700e-01
   3.7109400e-01
   3.4179700e-01
   3.3691400e-01
   3.3203100e-01
   2.7832000e-01
   3.2714800e-01
   2.8808600e-01
   3.5644500e-01
   3.7597700e-01
   3.9550800e-01
   4.1015600e-01
   4.7363300e-01
   4.7851600e-01
   4.7363300e-01
   5.3710900e-01
   4.9316400e-01
   5.3710900e-01
   5.1757800e-01
   5.3222700e-01
   5.2734400e-01
   4.9804700e-01
   4.3945300e-01
   4.1015600e-01
   3.8574200e-01
   4.1015600e-01
   3.4179700e-01
   3.0761700e-01
   2.8808600e-01
   2.6855500e-01
   3.0273400e-01
   2.4414100e-01
   2.7832000e-01
   2.3925800e-01
   2.1484400e-01
   2.4414100e-01
   1.7089800e-01
   1.4648400e-01
   1.7578100e-01
   1.1718800e-01
   1.2207000e-01
   7.8125000e-02
   7.8125000e-02
   9.7656300e-02
   4.8828100e-02
   4.3945300e-02
   0.0000000e+00
  -9.7656300e-03
  -4.3945300e-02
  -7.3242200e-02
  -8.3007800e-02
  -5.8593800e-02
  -6.3476600e-02
  -4.8828100e-02
  -7.3242200e-02
  -5.3710900e-02
  -5.8593800e-02
  -1.2695300e-01
  -1.3671900e-01
  -1.7089800e-01
  -1.8554700e-01
  -2.4414100e-01
  -2.8320300e-01
  -3.2714800e-01
  -3.7109400e-01
  -4.0527300e-01
  -4.2968800e-01
  -4.4433600e-01
  -4.3945300e-01
  -4.3945300e-01
  -4.2480500e-01
  -4.1992200e-01
  -4.1015600e-01
  -4.0527300e-01
  -4.0527300e-01
  -4.1503900e-01
  -4.2968800e-01
  -4.5410200e-01
  -4.7851600e-01
  -5.0293000e-01
  -5.2246100e-01
  -5.3222700e-01
  -5.3710900e-01
  -5.3222700e-01
  -5.2734400e-01
  -5.2246100e-01
  -5.2734400e-01
  -5.3710900e-01
  -5.4199200e-01
  -5.3710900e-01
  -5.3710900e-01
  -5.3222700e-01
  -5.2734400e-01
  -5.3222700e-01
  -5.4687500e-01
  -5.6152300e-01
  -5.8593800e-01
  -6.0058600e-01
  -6.1035200e-01
  -6.2500000e-01
  -6.2500000e-01
  -6.2988300e-01
  -6.3476600e-01
  -6.2988300e-01
  -6.2500000e-01
  -6.1523400e-01
  -5.9082000e-01
  -5.7128900e-01
  -5.4199200e-01
  -5.1269500e-01
  -4.8339800e-01
  -4.4921900e-01
  -4.2480500e-01
  -4.0039100e-01
  -3.8574200e-01
  -3.7597700e-01
  -3.6621100e-01
  -3.6621100e-01
  -3.5644500e-01
  -3.4179700e-01
  -3.2226600e-01
  -3.0273400e-01
  -2.9296900e-01
  -2.7343800e-01
  -2.5878900e-01
  -2.3925800e-01
  -2.1972700e-01
  -1.9043000e-01
  -1.6113300e-01
  -1.3183600e-01
  -1.1230500e-01
  -8.7890600e-02
  -6.8359400e-02
  -4.3945300e-02
  -1.4648400e-02
   1.9531300e-02
   5.8593800e-02
   8.7890600e-02
   1.2695300e-01
   1.7578100e-01
   2.6367200e-01
   3.2226600e-01
   3.0761700e-01
   3.4668000e-01
   3.4668000e-01
   3.8574200e-01
   3.1738300e-01
   2.7832000e-01
   2.5390600e-01
   2.3925800e-01
   2.3437500e-01
   2.2460900e-01
   2.2949200e-01
   2.2949200e-01
   2.3925800e-01
   3.1738300e-01
   3.1250000e-01
   3.9550800e-01
   4.3457000e-01
   4.5898400e-01
   5.3222700e-01
   5.8593800e-01
   5.9082000e-01
   6.7382800e-01
   6.3476600e-01
   6.4941400e-01
   6.8359400e-01
   6.0546900e-01
   6.3964800e-01
   6.0058600e-01
   5.8105500e-01
   5.5175800e-01
   5.1757800e-01
   5.1757800e-01
   5.6640600e-01
   5.6640600e-01
   5.4687500e-01
   5.5664100e-01
   5.7128900e-01
   6.0058600e-01
   6.4453100e-01
   6.9824200e-01
   6.8359400e-01
   7.2753900e-01
   7.4707000e-01
   7.7148400e-01
   8.1054700e-01
   8.1543000e-01
   7.6660200e-01
   8.1543000e-01
   7.4218800e-01
   7.4218800e-01
   7.1777300e-01
   7.0800800e-01
   7.1777300e-01
   6.7382800e-01
   6.0546900e-01
   5.5664100e-01
   5.6152300e-01
   5.0293000e-01
   4.2968800e-01
   4.0039100e-01
   4.4433600e-01
   3.8085900e-01
   4.3457000e-01
   3.8085900e-01
   3.8574200e-01
   4.1015600e-01
   3.9062500e-01
   3.6621100e-01
   3.6132800e-01
   2.9785200e-01
   3.0761700e-01
   2.2949200e-01
   1.9043000e-01
   1.3671900e-01
   1.1230500e-01
   4.8828100e-02
   1.4648400e-02
  -9.7656300e-03
  -7.3242200e-02
  -1.4648400e-01
  -1.6113300e-01
  -1.8066400e-01
  -2.0019500e-01
  -2.1484400e-01
  -1.7578100e-01
  -1.4648400e-01
  -1.3183600e-01
  -6.3476600e-02
  -6.3476600e-02
  -4.3945300e-02
  -6.3476600e-02
  -5.3710900e-02
  -8.7890600e-02
  -1.2695300e-01
  -1.4648400e-01
  -2.2460900e-01
  -2.7343800e-01
  -3.3203100e-01
  -3.9062500e-01
  -4.4433600e-01
  -4.9804700e-01
  -5.3710900e-01
  -5.6640600e-01
  -5.7617200e-01
  -5.7128900e-01
  -5.5175800e-01
  -5.2246100e-01
  -4.7851600e-01
  -4.3945300e-01
  -4.0039100e-01
  -3.7597700e-01
  -3.6132800e-01
  -3.7109400e-01
  -4.0039100e-01
  -4.4433600e-01
  -4.9804700e-01
  -5.5175800e-01
  -5.9570300e-01
  -6.3476600e-01
  -6.5918000e-01
  -6.6894500e-01
  -6.6894500e-01
  -6.6894500e-01
  -6.6406300e-01
  -6.5918000e-01
  -6.5918000e-01
  -6.5429700e-01
  -6.5918000e-01
  -6.6406300e-01
  -6.6894500e-01
  -6.7871100e-01
  -6.8847700e-01
  -7.0312500e-01
  -7.0800800e-01
  -7.0800800e-01
  -6.9824200e-01
  -6.8359400e-01
  -6.5918000e-01
  -6.2988300e-01
  -6.0546900e-01
  -5.7617200e-01
  -5.5175800e-01
  -5.2246100e-01
  -4.8828100e-01
  -4.5898400e-01
  -4.1992200e-01
  -3.8085900e-01
  -3.5156300e-01
  -3.3203100e-01
  -3.1738300e-01
  -3.0273400e-01
  -2.9296900e-01
  -2.7832000e-01
  -2.6367200e-01
  -2.4414100e-01
  -2.2949200e-01
  -2.2460900e-01
  -2.2460900e-01
  -2.3437500e-01
  -2.4414100e-01
  -2.4902300e-01
  -2.4902300e-01
  -2.4414100e-01
  -2.2460900e-01
  -2.0019500e-01
  -1.6601600e-01
  -1.3183600e-01
  -9.7656300e-02
  -5.8593800e-02
  -2.9296900e-02
   0.0000000e+00
   9.7656300e-03
   2.4414100e-02
   2.4414100e-02
   2.9296900e-02
   3.4179700e-02
   4.3945300e-02
   4.8828100e-02
   6.3476600e-02
   8.3007800e-02
   1.1718800e-01
   1.7578100e-01
   1.9043000e-01
   2.1972700e-01
   2.1972700e-01
   2.7832000e-01
   3.1738300e-01
   2.9296900e-01
   3.5156300e-01
   3.9062500e-01
   4.9804700e-01
   5.6152300e-01
   5.7617200e-01
   6.5429700e-01
   7.1289100e-01
   6.6894500e-01
   7.0800800e-01
   7.1289100e-01
   6.4453100e-01
   6.3964800e-01
   6.3476600e-01
   6.1523400e-01
   5.7128900e-01
   5.6152300e-01
   5.5664100e-01
   5.0293000e-01
   5.2734400e-01
   4.8828100e-01
   5.4687500e-01
   4.9316400e-01
   5.4687500e-01
   5.4199200e-01
   5.2246100e-01
   5.2246100e-01
   5.0293000e-01
   5.0293000e-01
   5.4687500e-01
   5.2734400e-01
   4.5410200e-01
   4.5410200e-01
   4.0039100e-01
   4.1015600e-01
   3.5644500e-01
   3.5644500e-01
   3.3203100e-01
   3.1738300e-01
   3.2226600e-01
   2.9785200e-01
   3.4179700e-01
   2.9785200e-01
   3.1738300e-01
   2.8808600e-01
   2.7343800e-01
   2.5390600e-01
   2.2460900e-01
   2.0996100e-01
   2.2949200e-01
   2.0507800e-01
   1.4160200e-01
   1.3183600e-01
   6.8359400e-02
   6.3476600e-02
   2.4414100e-02
   2.4414100e-02
   0.0000000e+00
   0.0000000e+00
   0.0000000e+00
   2.4414100e-02
   1.4648400e-02
   1.9531300e-02
   5.3710900e-02
  -9.7656300e-03
  -9.7656300e-03
  -7.3242200e-02
  -1.0253900e-01
  -1.8554700e-01
  -2.3437500e-01
  -2.7832000e-01
  -3.3203100e-01
  -3.8085900e-01
  -4.1503900e-01
  -4.4433600e-01
  -4.5410200e-01
  -4.6386700e-01
  -4.7851600e-01
  -4.9316400e-01
  -5.1757800e-01
  -5.5175800e-01
  -5.9570300e-01
  -6.4453100e-01
  -6.8847700e-01
  -7.2753900e-01
  -7.5195300e-01
  -7.6660200e-01
  -7.6660200e-01
  -7.6660200e-01
  -7.6171900e-01
  -7.5683600e-01
  -7.6660200e-01
  -7.8613300e-01
  -8.0566400e-01
  -8.3007800e-01
  -8.4960900e-01
  -8.4960900e-01
  -8.2519500e-01
  -7.8613300e-01
  -7.4707000e-01
  -7.0312500e-01
  -6.6406300e-01
  -6.2988300e-01
  -6.0058600e-01
  -5.8105500e-01
  -5.6152300e-01
  -5.4199200e-01
  -5.2734400e-01
  -5.2734400e-01
  -5.2734400e-01
  -5.3710900e-01
  -5.5175800e-01
  -5.7617200e-01
  -6.0546900e-01
  -6.3476600e-01
  -6.5429700e-01
  -6.6894500e-01
  -6.7871100e-01
  -6.7382800e-01
  -6.6894500e-01
  -6.5918000e-01
  -6.4453100e-01
  -6.2988300e-01
  -6.0546900e-01
  -5.7617200e-01
  -5.5175800e-01
  -5.2734400e-01
  -4.9804700e-01
  -4.8339800e-01
  -4.6875000e-01
  -4.6386700e-01
  -4.5898400e-01
  -4.4921900e-01
  -4.3457000e-01
  -4.1503900e-01
  -3.9062500e-01
  -3.6621100e-01
  -3.4668000e-01
  -3.2714800e-01
  -3.0273400e-01
  -2.7343800e-01
  -2.3437500e-01
  -2.0019500e-01
  -1.6601600e-01
  -1.3671900e-01
  -1.1230500e-01
  -8.7890600e-02
  -5.8593800e-02
  -2.9296900e-02
   0.0000000e+00
   3.9062500e-02
   6.8359400e-02
   9.7656300e-02
   1.3671900e-01
   1.3671900e-01
   1.2695300e-01
   1.3671900e-01
   1.4160200e-01
   1.6113300e-01
   2.0019500e-01
   1.6601600e-01
   1.4160200e-01
   1.7578100e-01
   1.3183600e-01
   1.3183600e-01
   1.2207000e-01
   1.3183600e-01
   1.4648400e-01
   1.7089800e-01
   2.4414100e-01
   2.6367200e-01
   2.3925800e-01
   2.3925800e-01
   2.3925800e-01
   2.9785200e-01
   2.9296900e-01
   3.0273400e-01
   3.5156300e-01
   3.8574200e-01
   3.9550800e-01
   4.6386700e-01
   5.2246100e-01
   5.6152300e-01
   6.5429700e-01
   6.2988300e-01
   6.9335900e-01
   6.9824200e-01
   6.3964800e-01
   6.5429700e-01
   6.3964800e-01
   6.1523400e-01
   5.1757800e-01
   5.2246100e-01
   4.5898400e-01
   4.2480500e-01
   3.9550800e-01
   3.7597700e-01
   3.8085900e-01
   3.7597700e-01
   3.9062500e-01
   3.8085900e-01
   3.3691400e-01
   3.3203100e-01
   2.9296900e-01
   3.3691400e-01
   2.7832000e-01
   3.3203100e-01
   2.9296900e-01
   2.9785200e-01
   3.2226600e-01
   3.1250000e-01
   3.2226600e-01
   3.0273400e-01
   2.7832000e-01
   2.5878900e-01
   2.6367200e-01
   1.9043000e-01
   1.8554700e-01
   1.1230500e-01
   1.3183600e-01
   5.3710900e-02
   5.3710900e-02
  -2.9296900e-02
  -6.3476600e-02
  -1.5625000e-01
  -1.8554700e-01
  -2.5390600e-01
  -2.9296900e-01
  -3.2714800e-01
  -3.4668000e-01
  -3.6621100e-01
  -3.7109400e-01
  -3.7109400e-01
  -3.7597700e-01
  -3.8085900e-01
  -3.7597700e-01
  -3.8574200e-01
  -3.9062500e-01
  -4.1015600e-01
  -4.3457000e-01
  -4.7363300e-01
  -5.0781300e-01
  -5.3710900e-01
  -5.5664100e-01
  -5.6640600e-01
  -5.8593800e-01
  -5.8105500e-01
  -5.8593800e-01
  -5.8105500e-01
  -5.7617200e-01
  -5.7617200e-01
  -5.7617200e-01
  -5.8105500e-01
  -5.9082000e-01
  -5.9570300e-01
  -6.0546900e-01
  -6.1035200e-01
  -6.1035200e-01
  -5.9570300e-01
  -5.8593800e-01
  -5.8105500e-01
  -5.7128900e-01
  -5.7128900e-01
  -5.8105500e-01
  -5.9570300e-01
  -6.2011700e-01
  -6.3964800e-01
  -6.5918000e-01
  -6.6894500e-01
  -6.7871100e-01
  -6.7871100e-01
  -6.6894500e-01
  -6.6406300e-01
  -6.5429700e-01
  -6.5429700e-01
  -6.4941400e-01
  -6.4941400e-01
  -6.4453100e-01
  -6.4453100e-01
  -6.3964800e-01
  -6.3476600e-01
  -6.3476600e-01
  -6.2988300e-01
  -6.2988300e-01
  -6.2500000e-01
  -6.2500000e-01
  -6.2500000e-01
  -6.2011700e-01
  -6.1035200e-01
  -6.0058600e-01
  -5.9082000e-01
  -5.7617200e-01
  -5.4687500e-01
  -5.1269500e-01
  -4.6386700e-01
  -4.0039100e-01
  -3.3203100e-01
  -2.5878900e-01
  -1.9531300e-01
  -1.4648400e-01
  -1.1718800e-01
  -1.0742200e-01
  -1.1718800e-01
  -1.4648400e-01
  -1.8554700e-01
  -2.2460900e-01
  -2.4902300e-01
  -2.5878900e-01
  -2.4902300e-01
  -2.2949200e-01
  -1.9531300e-01
  -1.5625000e-01
  -1.2207000e-01
  -8.3007800e-02
  -4.3945300e-02
  -4.8828100e-03
   3.4179700e-02
   7.3242200e-02
   1.0742200e-01
   1.2695300e-01
   2.0507800e-01
   2.2949200e-01
   2.6855500e-01
   2.8320300e-01
   3.1738300e-01
   3.3203100e-01
   3.6621100e-01
   3.8085900e-01
   3.5644500e-01
   3.5644500e-01
   3.5644500e-01
   3.3203100e-01
   3.8085900e-01
   3.6132800e-01
   4.1015600e-01
   3.9550800e-01
   4.2968800e-01
   5.0293000e-01
   4.7851600e-01
   5.2734400e-01
   5.4199200e-01
   5.6152300e-01
   6.1523400e-01
   6.3476600e-01
   6.2011700e-01
   6.2988300e-01
   6.2988300e-01
   6.1523400e-01
   5.8593800e-01
   6.3964800e-01
   6.1523400e-01
   5.7617200e-01
   6.1523400e-01
   6.2988300e-01
   5.9082000e-01
   6.4453100e-01
   5.8593800e-01
   6.3476600e-01
   6.1523400e-01
   6.0546900e-01
   5.2246100e-01
   5.3222700e-01
   5.2246100e-01
   4.9804700e-01
   5.1269500e-01
   5.0781300e-01
   4.9804700e-01
   4.9804700e-01
   4.4433600e-01
   4.5898400e-01
   4.0039100e-01
   3.7597700e-01
   3.7597700e-01
   3.9062500e-01
   3.9062500e-01
   3.3691400e-01
   3.3203100e-01
   3.3203100e-01
   3.3691400e-01
   3.5156300e-01
   3.0273400e-01
   3.5156300e-01
   3.6132800e-01
   3.6132800e-01
   3.4179700e-01
   3.2226600e-01
   2.9296900e-01
   2.6855500e-01
   2.0507800e-01
   1.9531300e-01
   1.4648400e-01
   1.5136700e-01
   1.1718800e-01
   3.9062500e-02
  -2.4414100e-02
  -5.8593800e-02
  -1.3183600e-01
  -2.3437500e-01
  -2.7832000e-01
  -3.3203100e-01
  -3.6621100e-01
  -3.7597700e-01
  -3.8085900e-01
  -3.8574200e-01
  -3.9062500e-01
  -3.9062500e-01
  -4.0039100e-01
  -4.1992200e-01
  -4.3945300e-01
  -4.5898400e-01
  -4.7363300e-01
  -4.7363300e-01
  -4.6875000e-01
  -4.7851600e-01
  -4.6875000e-01
  -4.7363300e-01
  -4.8339800e-01
  -4.9316400e-01
  -5.0293000e-01
  -5.1757800e-01
  -5.3710900e-01
  -5.5175800e-01
  -5.5664100e-01
  -5.5175800e-01
  -5.3710900e-01
  -5.2246100e-01
  -5.0293000e-01
  -4.9316400e-01
  -4.8828100e-01
  -4.9804700e-01
  -5.2246100e-01
  -5.4687500e-01
  -5.7617200e-01
  -5.9570300e-01
  -6.1035200e-01
  -6.0546900e-01
  -5.9570300e-01
  -5.8105500e-01
  -5.6152300e-01
  -5.3710900e-01
  -5.1757800e-01
  -4.9804700e-01
  -4.8828100e-01
  -4.7851600e-01
  -4.6875000e-01
  -4.6386700e-01
  -4.5898400e-01
  -4.4921900e-01
  -4.3945300e-01
  -4.2480500e-01
  -4.1503900e-01
  -4.1503900e-01
  -4.1992200e-01
  -4.2480500e-01
  -4.4433600e-01
  -4.6875000e-01
  -4.9316400e-01
  -5.1269500e-01
  -5.2734400e-01
  -5.2734400e-01
  -5.0293000e-01
  -4.6875000e-01
  -4.1992200e-01
  -3.6621100e-01
  -3.1250000e-01
  -2.7343800e-01
  -2.4902300e-01
  -2.3437500e-01
  -2.2949200e-01
  -2.2460900e-01
  -2.1484400e-01
  -1.9531300e-01
  -1.7578100e-01
  -1.5625000e-01
  -1.4160200e-01
  -1.3183600e-01
  -1.3183600e-01
  -1.3671900e-01
  -1.4648400e-01
  -1.4648400e-01
  -1.4160200e-01
  -1.2695300e-01
  -1.0253900e-01
  -6.3476600e-02
  -1.9531300e-02
   2.9296900e-02
   8.3007800e-02
   1.1230500e-01
   1.9531300e-01
   1.8554700e-01
   2.0996100e-01
   2.9296900e-01
   3.0761700e-01
   2.9785200e-01
   3.1250000e-01
   3.8574200e-01
   3.7109400e-01
   3.9062500e-01
   3.9550800e-01
   3.4668000e-01
   3.6132800e-01
   3.9550800e-01
   3.8574200e-01
   4.7363300e-01
   4.5410200e-01
   5.7128900e-01
   5.7128900e-01
   6.6406300e-01
   6.9335900e-01
   6.9824200e-01
   7.2265600e-01
   7.2265600e-01
   6.9335900e-01
   6.4453100e-01
   6.6406300e-01
   5.8593800e-01
   6.1035200e-01
   6.2011700e-01
   6.2500000e-01
   6.0546900e-01
   6.0546900e-01
   6.4453100e-01
   7.0312500e-01
   6.6406300e-01
   7.2265600e-01
   6.7382800e-01
   6.4941400e-01
   6.5918000e-01
   5.9082000e-01
   5.7617200e-01
   5.2246100e-01
   5.2246100e-01
   4.7851600e-01
   4.5410200e-01
   4.5410200e-01
   4.6386700e-01
   4.7851600e-01
   4.5410200e-01
   4.1992200e-01
   3.8574200e-01
   3.9550800e-01
   3.5644500e-01
   2.6367200e-01
   2.3437500e-01
   2.3437500e-01
   1.5136700e-01
   1.9043000e-01
   1.8554700e-01
   1.5625000e-01
   2.2949200e-01
   3.0273400e-01
   3.3691400e-01
   4.0039100e-01
   4.3945300e-01
   4.7851600e-01
   5.4199200e-01
   5.1757800e-01
   4.7851600e-01
   3.7597700e-01
   3.1250000e-01
   2.8808600e-01
   1.9043000e-01
   1.3671900e-01
   7.8125000e-02
   9.7656300e-03
  -4.8828100e-02
  -3.9062500e-02
  -8.7890600e-02
  -9.7656300e-02
  -9.7656300e-02
  -8.3007800e-02
  -7.8125000e-02
  -8.3007800e-02
  -8.7890600e-02
  -1.1230500e-01
  -1.3671900e-01
  -1.3183600e-01
  -1.7089800e-01
  -2.1484400e-01
  -2.4414100e-01
  -2.6367200e-01
  -3.0273400e-01
  -3.2226600e-01
  -3.4668000e-01
  -3.7109400e-01
  -3.9550800e-01
  -4.2480500e-01
  -4.4921900e-01
  -4.7363300e-01
  -5.0293000e-01
  -5.2734400e-01
  -5.4687500e-01
  -5.6640600e-01
  -5.8105500e-01
  -5.9570300e-01
  -6.0546900e-01
  -6.1523400e-01
  -6.2500000e-01
  -6.3476600e-01
  -6.4453100e-01
  -6.4941400e-01
  -6.4453100e-01
  -6.3476600e-01
  -6.2500000e-01
  -6.1523400e-01
  -6.0546900e-01
  -6.0546900e-01
  -6.0546900e-01
  -6.0546900e-01
  -6.0058600e-01
  -5.9082000e-01
  -5.7617200e-01
  -5.5664100e-01
  -5.4199200e-01
  -5.3222700e-01
  -5.2734400e-01
  -5.3222700e-01
  -5.3710900e-01
  -5.4199200e-01
  -5.4199200e-01
  -5.3710900e-01
  -5.2246100e-01
  -4.9316400e-01
  -4.6386700e-01
  -4.3457000e-01
  -4.1503900e-01
  -3.9550800e-01
  -3.8085900e-01
  -3.7109400e-01
  -3.6621100e-01
  -3.6132800e-01
  -3.4179700e-01
  -3.2226600e-01
  -2.9785200e-01
  -2.7832000e-01
  -2.6367200e-01
  -2.4902300e-01
  -2.4902300e-01
  -2.5390600e-01
  -2.6367200e-01
  -2.6855500e-01
  -2.7343800e-01
  -2.6855500e-01
  -2.4902300e-01
  -2.0996100e-01
  -1.6113300e-01
  -1.0253900e-01
  -3.9062500e-02
   2.4414100e-02
   7.3242200e-02
   1.2695300e-01
   1.2695300e-01
   1.5136700e-01
   1.5136700e-01
   1.0742200e-01
   1.0253900e-01
   9.2773400e-02
   6.3476600e-02
   8.7890600e-02
   4.8828100e-02
   8.3007800e-02
   4.8828100e-02
   7.3242200e-02
   8.3007800e-02
   1.2695300e-01
   1.4160200e-01
   1.8066400e-01
   1.8554700e-01
   2.3925800e-01
   2.6367200e-01
   3.1738300e-01
   3.4179700e-01
   3.9062500e-01
   4.0527300e-01
   4.3457000e-01
   4.5410200e-01
   4.4921900e-01
   4.1015600e-01
   4.3945300e-01
   4.3457000e-01
   4.3945300e-01
   4.6875000e-01
   4.9316400e-01
   5.1269500e-01
   5.4199200e-01
   6.0546900e-01
   6.0058600e-01
   6.7382800e-01
   6.3964800e-01
   6.7871100e-01
   7.0800800e-01
   6.3476600e-01
   6.3964800e-01
   6.1035200e-01
   6.1035200e-01
   5.2734400e-01
   5.1269500e-01
   5.3222700e-01
   4.9804700e-01
   4.6875000e-01
   4.8339800e-01
   4.1992200e-01
   4.6875000e-01
   4.6386700e-01
   4.0527300e-01
   3.9550800e-01
   3.9550800e-01
   4.0039100e-01
   3.7597700e-01
   3.4179700e-01
   2.7343800e-01
   3.2226600e-01
   3.3203100e-01
   3.5644500e-01
   3.2714800e-01
   3.9062500e-01
   3.9550800e-01
   3.4179700e-01
   3.6132800e-01
   3.0761700e-01
   2.8808600e-01
   2.4414100e-01
   2.4414100e-01
   2.2949200e-01
   1.9531300e-01
   1.3183600e-01
   1.3671900e-01
   9.7656300e-02
   2.9296900e-02
  -1.4648400e-02
  -1.9531300e-02
  -9.7656300e-02
  -1.0253900e-01
  -1.3183600e-01
  -1.6113300e-01
  -1.9043000e-01
  -2.0996100e-01
  -1.8066400e-01
  -1.7089800e-01
  -1.6601600e-01
  -1.7578100e-01
  -1.2695300e-01
  -1.4648400e-01
  -1.6113300e-01
  -1.6601600e-01
  -1.8066400e-01
  -2.2460900e-01
  -2.4414100e-01
  -2.5390600e-01
  -2.8320300e-01
  -2.9785200e-01
  -3.1738300e-01
  -3.3691400e-01
  -3.6132800e-01
  -3.8574200e-01
  -4.1992200e-01
  -4.5898400e-01
  -4.9804700e-01
  -5.4687500e-01
  -5.8593800e-01
  -6.2011700e-01
  -6.5429700e-01
  -6.7382800e-01
  -6.9335900e-01
  -7.0800800e-01
  -7.2265600e-01
  -7.3730500e-01
  -7.5683600e-01
  -7.7148400e-01
  -7.8125000e-01
  -7.7636700e-01
  -7.6660200e-01
  -7.4707000e-01
  -7.2265600e-01
  -7.0312500e-01
  -6.8847700e-01
  -6.9335900e-01
  -7.0800800e-01
  -7.3242200e-01
  -7.6660200e-01
  -7.9101600e-01
  -8.0566400e-01
  -8.0566400e-01
  -7.9101600e-01
  -7.6171900e-01
  -7.2265600e-01
  -6.6894500e-01
  -6.2011700e-01
  -5.7617200e-01
  -5.4687500e-01
  -5.3222700e-01
  -5.2246100e-01
  -5.1757800e-01
  -5.1757800e-01
  -5.1269500e-01
  -5.0293000e-01
  -4.8339800e-01
  -4.5898400e-01
  -4.3457000e-01
  -4.1015600e-01
  -3.9062500e-01
  -3.8085900e-01
  -3.8574200e-01
  -4.0039100e-01
  -4.1992200e-01
  -4.3457000e-01
  -4.4921900e-01
  -4.5410200e-01
  -4.4433600e-01
  -4.1992200e-01
  -3.8085900e-01
  -3.3691400e-01
  -2.8320300e-01
  -2.2949200e-01
  -1.7578100e-01
  -1.3183600e-01
  -8.7890600e-02
  -4.3945300e-02
   0.0000000e+00
   3.4179700e-02
   7.3242200e-02
   9.2773400e-02
   1.5625000e-01
   1.4648400e-01
   2.0019500e-01
   2.0507800e-01
   1.8066400e-01
   1.8554700e-01
   1.9531300e-01
   1.8066400e-01
   2.1484400e-01
   2.1972700e-01
   1.9043000e-01
   2.2949200e-01
   2.3437500e-01
   2.5390600e-01
   3.3203100e-01
   2.8808600e-01
   3.4179700e-01
   2.9296900e-01
   3.1250000e-01
   2.6855500e-01
   2.9785200e-01
   2.9785200e-01
   2.9296900e-01
   3.7109400e-01
   4.2968800e-01
   4.4433600e-01
   4.6875000e-01
   5.3222700e-01
   5.9082000e-01
   5.7128900e-01
   5.6152300e-01
   5.4687500e-01
   5.7617200e-01
   5.7617200e-01
   5.3710900e-01
   5.7617200e-01
   5.9570300e-01
   5.9570300e-01
   5.7617200e-01
   6.3964800e-01
   6.1523400e-01
   6.6406300e-01
   6.2500000e-01
   6.8359400e-01
   6.9335900e-01
   6.7871100e-01
   7.2753900e-01
   6.5918000e-01
   6.7871100e-01
   6.3476600e-01
   6.1035200e-01
   5.2734400e-01
   5.0293000e-01
   4.1503900e-01
   4.1992200e-01
   3.7109400e-01
   3.4179700e-01
   3.2226600e-01
   3.2714800e-01
   3.0761700e-01
   3.5644500e-01
   3.0761700e-01
   3.2714800e-01
   2.8320300e-01
   2.8320300e-01
   2.5878900e-01
   2.7343800e-01
   2.2460900e-01
   2.3925800e-01
   2.2460900e-01
   1.9043000e-01
   1.9043000e-01
   1.6113300e-01
   2.0507800e-01
   2.0019500e-01
   1.6113300e-01
   1.1230500e-01
   1.2207000e-01
   4.3945300e-02
  -1.9531300e-02
  -8.3007800e-02
  -9.2773400e-02
  -1.3671900e-01
  -1.2207000e-01
  -1.5136700e-01
  -1.6113300e-01
  -1.3183600e-01
  -1.4160200e-01
  -1.7089800e-01
  -1.7089800e-01
  -2.2949200e-01
  -2.8320300e-01
  -3.4179700e-01
  -4.0039100e-01
  -4.4433600e-01
  -4.8828100e-01
  -5.2246100e-01
  -5.6152300e-01
  -5.9570300e-01
  -6.2988300e-01
  -6.6406300e-01
  -6.9335900e-01
  -7.1289100e-01
  -7.3242200e-01
  -7.5195300e-01
  -7.6660200e-01
  -7.8613300e-01
  -8.0078100e-01
  -8.0566400e-01
  -8.0078100e-01
  -7.8613300e-01
  -7.5683600e-01
  -7.1289100e-01
  -6.7382800e-01
  -6.3964800e-01
  -6.1035200e-01
  -5.9570300e-01
  -5.9082000e-01
  -6.0058600e-01
  -6.2011700e-01
  -6.4453100e-01
  -6.7382800e-01
  -6.9824200e-01
  -7.2753900e-01
  -7.4707000e-01
  -7.6171900e-01
  -7.7636700e-01
  -7.9589800e-01
  -8.1054700e-01
  -8.2031300e-01
  -8.1054700e-01
  -7.9101600e-01
  -7.4707000e-01
  -6.8359400e-01
  -6.0546900e-01
  -5.2734400e-01
  -4.5898400e-01
  -4.0527300e-01
  -3.7597700e-01
  -3.6621100e-01
  -3.7109400e-01
  -3.9062500e-01
  -4.0527300e-01
  -4.1503900e-01
  -4.2968800e-01
  -4.2968800e-01
  -4.1992200e-01
  -4.0527300e-01
  -3.8574200e-01
  -3.6621100e-01
  -3.4668000e-01
  -3.3203100e-01
  -3.1738300e-01
  -3.0273400e-01
  -2.8808600e-01
  -2.7343800e-01
  -2.5878900e-01
  -2.3925800e-01
  -2.2460900e-01
  -2.0019500e-01
  -1.8066400e-01
  -1.5625000e-01
  -1.3671900e-01
  -1.1718800e-01
  -8.7890600e-02
  -5.3710900e-02
  -2.4414100e-02
   1.4648400e-02
   5.3710900e-02
   9.7656300e-02
   1.0742200e-01
   2.0019500e-01
   2.0996100e-01
   2.6367200e-01
   2.5878900e-01
   3.2226600e-01
   3.6621100e-01
   3.7597700e-01
   3.5644500e-01
   3.9550800e-01
   3.9550800e-01
   3.7109400e-01
   3.9062500e-01
   3.8574200e-01
   3.4668000e-01
   3.3203100e-01
   3.4179700e-01
   3.3203100e-01
   2.8808600e-01
   3.4179700e-01
   3.4179700e-01
   3.6621100e-01
   3.5644500e-01
   3.9062500e-01
   4.3457000e-01
   5.1269500e-01
   4.6875000e-01
   4.7851600e-01
   4.9804700e-01
   5.4199200e-01
   5.1269500e-01
   5.5664100e-01
   5.3222700e-01
   5.9082000e-01
   5.8593800e-01
   6.6894500e-01
   6.2988300e-01
   6.5429700e-01
   6.9335900e-01
   6.4453100e-01
   6.3476600e-01
   6.4941400e-01
   6.1035200e-01
   5.3710900e-01
   5.1269500e-01
   4.8339800e-01
   4.2480500e-01
   3.5644500e-01
   3.3203100e-01
   3.2714800e-01
   3.2714800e-01
   2.8808600e-01
   2.5878900e-01
   2.0996100e-01
   2.3437500e-01
   1.9043000e-01
   1.6601600e-01
   1.7578100e-01
   1.7578100e-01
   1.9531300e-01
   2.0019500e-01
   2.4902300e-01
   2.6367200e-01
   2.7832000e-01
   2.7343800e-01
   3.0273400e-01
   2.6367200e-01
   2.6367200e-01
   2.3925800e-01
   2.3925800e-01
   2.4414100e-01
   1.9043000e-01
   2.0019500e-01
   1.4648400e-01
   1.0253900e-01
   6.3476600e-02
   0.0000000e+00
  -5.3710900e-02
  -1.4648400e-01
  -1.9531300e-01
  -2.4902300e-01
  -2.9296900e-01
  -3.3203100e-01
  -3.6132800e-01
  -3.7597700e-01
  -3.7597700e-01
  -3.7109400e-01
  -3.6132800e-01
  -3.6132800e-01
  -3.6621100e-01
  -3.7597700e-01
  -3.8574200e-01
  -3.9550800e-01
  -4.0039100e-01
  -3.9550800e-01
  -3.8085900e-01
  -3.7109400e-01
  -3.5644500e-01
  -3.4179700e-01
  -3.3203100e-01
  -3.3691400e-01
  -3.4668000e-01
  -3.6621100e-01
  -3.9550800e-01
  -4.2968800e-01
  -4.7363300e-01
  -5.1269500e-01
  -5.6152300e-01
  -6.0058600e-01
  -6.5429700e-01
  -6.9335900e-01
  -7.2265600e-01
  -7.4707000e-01
  -7.5195300e-01
  -7.4218800e-01
  -7.1777300e-01
  -6.7871100e-01
  -6.4453100e-01
  -6.0546900e-01
  -5.8105500e-01
  -5.6640600e-01
  -5.6152300e-01
  -5.7128900e-01
  -5.8105500e-01
  -5.9082000e-01
  -5.9570300e-01
  -6.0058600e-01
  -6.0058600e-01
  -5.9570300e-01
  -5.9082000e-01
  -5.8593800e-01
  -5.7617200e-01
  -5.7128900e-01
  -5.6152300e-01
  -5.5664100e-01
  -5.5664100e-01
  -5.5664100e-01
  -5.5664100e-01
  -5.6152300e-01
  -5.8105500e-01
  -6.0058600e-01
  -6.1523400e-01
  -6.2011700e-01
  -6.1523400e-01
  -5.9570300e-01
  -5.5664100e-01
  -5.1269500e-01
  -4.6875000e-01
  -4.3457000e-01
  -4.0527300e-01
  -3.8085900e-01
  -3.6621100e-01
  -3.5156300e-01
  -3.4179700e-01
  -3.2714800e-01
  -3.0761700e-01
  -2.8320300e-01
  -2.5390600e-01
  -2.1484400e-01
  -1.8066400e-01
  -1.5136700e-01
  -1.2207000e-01
  -9.7656300e-02
  -6.8359400e-02
  -3.9062500e-02
  -9.7656300e-03
   2.4414100e-02
   5.8593800e-02
   9.2773400e-02
   1.4160200e-01
   1.6601600e-01
   2.2460900e-01
   2.7832000e-01
   2.7832000e-01
   3.6132800e-01
   3.6621100e-01
   4.1015600e-01
   4.1503900e-01
   4.1015600e-01
   4.6386700e-01
   4.6386700e-01
   4.9804700e-01
   5.2246100e-01
   5.3710900e-01
   5.0293000e-01
   5.7128900e-01
   5.4199200e-01
   5.6152300e-01
   5.8105500e-01
   6.4941400e-01
   6.1035200e-01
   6.6894500e-01
   7.1289100e-01
   6.7871100e-01
   7.5195300e-01
   7.5195300e-01
   7.3242200e-01
   7.0800800e-01
   7.4707000e-01
   6.9824200e-01
   7.1777300e-01
   6.4453100e-01
   6.3964800e-01
   6.7382800e-01
   6.1035200e-01
   6.4941400e-01
   6.7871100e-01
   6.3476600e-01
   6.6894500e-01
   6.8359400e-01
   6.1523400e-01
   6.4941400e-01
   5.7617200e-01
   5.4687500e-01
   5.6152300e-01
   5.4687500e-01
   5.0293000e-01
   4.9316400e-01
   4.4921900e-01
   4.7363300e-01
   4.4921900e-01
   4.8339800e-01
   4.8828100e-01
   4.5898400e-01
   4.5898400e-01
   4.2480500e-01
   4.0527300e-01
   4.5898400e-01
   4.2480500e-01
   3.7109400e-01
   3.6132800e-01
   3.6132800e-01
   3.1250000e-01
   2.8808600e-01
   2.9785200e-01
   2.7343800e-01
   2.0507800e-01
   1.7578100e-01
   1.7089800e-01
   1.3671900e-01
   9.2773400e-02
   5.8593800e-02
   0.0000000e+00
  -3.4179700e-02
  -4.8828100e-02
  -7.8125000e-02
  -1.3671900e-01
  -1.4648400e-01
  -1.2695300e-01
  -1.5625000e-01
  -1.3183600e-01
  -1.7578100e-01
  -1.6113300e-01
  -2.0996100e-01
  -2.3437500e-01
  -2.6367200e-01
  -3.0761700e-01
  -3.5644500e-01
  -3.9550800e-01
  -4.3945300e-01
  -4.7363300e-01
  -5.0781300e-01
  -5.4687500e-01
  -5.6152300e-01
  -5.9082000e-01
  -6.0546900e-01
  -6.1523400e-01
  -6.1035200e-01
  -6.0546900e-01
  -6.0058600e-01
  -5.9570300e-01
  -5.8593800e-01
  -5.8105500e-01
  -5.7128900e-01
  -5.6152300e-01
  -5.5175800e-01
  -5.3710900e-01
  -5.3222700e-01
  -5.4199200e-01
  -5.5664100e-01
  -5.9082000e-01
  -6.3476600e-01
  -6.7871100e-01
  -7.2753900e-01
  -7.6171900e-01
  -7.9589800e-01
  -8.3496100e-01
  -8.5449200e-01
  -8.6425800e-01
  -8.5449200e-01
  -8.3007800e-01
  -7.9589800e-01
  -7.5195300e-01
  -7.0800800e-01
  -6.7382800e-01
  -6.5918000e-01
  -6.4941400e-01
  -6.4941400e-01
  -6.4453100e-01
  -6.4453100e-01
  -6.3964800e-01
  -6.3476600e-01
  -6.2500000e-01
  -6.1523400e-01
  -6.0058600e-01
  -5.8105500e-01
  -5.5664100e-01
  -5.2734400e-01
  -4.9804700e-01
  -4.6875000e-01
  -4.4433600e-01
  -4.2480500e-01
  -4.1992200e-01
  -4.1992200e-01
  -4.1992200e-01
  -4.2968800e-01
  -4.4921900e-01
  -4.6386700e-01
  -4.8339800e-01
  -5.0293000e-01
  -5.2246100e-01
  -5.4687500e-01
  -5.7128900e-01
  -5.8105500e-01
  -5.8105500e-01
  -5.6152300e-01
  -5.2734400e-01
  -4.7363300e-01
  -4.0039100e-01
  -3.2714800e-01
  -2.4414100e-01
  -1.6113300e-01
  -8.3007800e-02
   0.0000000e+00
   6.8359400e-02
   1.1718800e-01
   1.9043000e-01
   2.4902300e-01
   2.7343800e-01
   3.2714800e-01
   2.9296900e-01
   3.1250000e-01
   3.6132800e-01
   3.1250000e-01
   3.0273400e-01
   2.9296900e-01
   3.1738300e-01
   3.1250000e-01
   2.5390600e-01
   2.6855500e-01
   2.1484400e-01
   2.5390600e-01
   2.5878900e-01
   2.4414100e-01
   2.7343800e-01
   3.3691400e-01
   3.3203100e-01
   3.8574200e-01
   4.4433600e-01
   4.2968800e-01
   4.9316400e-01
   5.3710900e-01
   5.3222700e-01
   5.7617200e-01
   5.9082000e-01
   6.2500000e-01
   6.2500000e-01
   6.1035200e-01
   6.0058600e-01
   5.4199200e-01
   5.0293000e-01
   4.6875000e-01
   4.1992200e-01
   4.4921900e-01
   4.4921900e-01
   4.9316400e-01
   4.8339800e-01
   5.5664100e-01
   5.6640600e-01
   5.7128900e-01
   5.3710900e-01
   5.7128900e-01
   4.8339800e-01
   5.0293000e-01
   4.2968800e-01
   4.0039100e-01
   3.7109400e-01
   3.5156300e-01
   3.8085900e-01
   3.6132800e-01
   4.3457000e-01
   4.1992200e-01
   4.5410200e-01
   4.7851600e-01
   4.3457000e-01
   4.3945300e-01
   4.4921900e-01
   4.3457000e-01
   4.0039100e-01
   3.3691400e-01
   3.5644500e-01
   2.8320300e-01
   2.8320300e-01
   2.6367200e-01
   2.6367200e-01
   2.1972700e-01
   2.1972700e-01
   1.7089800e-01
   1.8066400e-01
   1.2695300e-01
   1.2695300e-01
   1.2695300e-01
   9.7656300e-02
   6.3476600e-02
   6.3476600e-02
   2.9296900e-02
   3.4179700e-02
  -2.9296900e-02
  -2.9296900e-02
  -5.8593800e-02
  -1.0742200e-01
  -9.7656300e-02
  -1.3671900e-01
  -1.2207000e-01
  -1.5136700e-01
  -1.4160200e-01
  -1.9043000e-01
  -2.1484400e-01
  -2.0996100e-01
  -2.4902300e-01
  -2.7832000e-01
  -2.8320300e-01
  -3.0273400e-01
  -3.0761700e-01
  -3.2226600e-01
  -3.4179700e-01
  -3.6621100e-01
  -4.0039100e-01
  -4.3945300e-01
  -4.7851600e-01
  -5.1757800e-01
  -5.5175800e-01
  -5.8593800e-01
  -6.2011700e-01
  -6.4453100e-01
  -6.5918000e-01
  -6.7382800e-01
  -6.8359400e-01
  -6.9335900e-01
  -6.9824200e-01
  -7.0800800e-01
  -7.1289100e-01
  -7.1289100e-01
  -7.1289100e-01
  -7.1289100e-01
  -7.0800800e-01
  -7.0312500e-01
  -6.9335900e-01
  -6.7871100e-01
  -6.6894500e-01
  -6.5429700e-01
  -6.3964800e-01
  -6.2988300e-01
  -6.2500000e-01
  -6.2011700e-01
  -6.2500000e-01
  -6.2011700e-01
  -6.1523400e-01
  -6.0546900e-01
  -5.8593800e-01
  -5.6152300e-01
  -5.3222700e-01
  -5.0293000e-01
  -4.7363300e-01
  -4.5410200e-01
  -4.2968800e-01
  -4.1503900e-01
  -4.0039100e-01
  -3.8574200e-01
  -3.7597700e-01
  -3.7597700e-01
  -3.7109400e-01
  -3.7597700e-01
  -3.8574200e-01
  -4.0039100e-01
  -4.1015600e-01
  -4.1992200e-01
  -4.1503900e-01
  -4.0039100e-01
  -3.7109400e-01
  -3.4179700e-01
  -3.0273400e-01
  -2.6367200e-01
  -2.1972700e-01
  -1.6601600e-01
  -1.1718800e-01
  -5.8593800e-02
   0.0000000e+00
   5.3710900e-02
   1.2695300e-01
   1.4648400e-01
   1.6601600e-01
   2.0996100e-01
   1.8066400e-01
   1.8554700e-01
   2.3925800e-01
   2.0507800e-01
   2.4414100e-01
   2.3437500e-01
   2.5878900e-01
   2.9785200e-01
   3.2714800e-01
   4.0527300e-01
   4.4433600e-01
   4.2480500e-01
   4.6875000e-01
   5.0293000e-01
   4.7851600e-01
   4.7851600e-01
   4.3945300e-01
   4.3945300e-01
   4.6386700e-01
   4.4921900e-01
   4.6386700e-01
   4.1992200e-01
   4.5898400e-01
   4.5410200e-01
   4.1503900e-01
   4.3457000e-01
   4.4921900e-01
   4.6386700e-01
   4.6875000e-01
   4.8339800e-01
   5.1757800e-01
   5.4199200e-01
   5.6152300e-01
   6.2011700e-01
   6.0546900e-01
   6.8847700e-01
   7.0312500e-01
   7.5683600e-01
   7.3730500e-01
   6.9335900e-01
   7.2265600e-01
   6.3964800e-01
   6.2011700e-01
   5.8593800e-01
   5.3222700e-01
   5.1757800e-01
   4.6386700e-01
   5.0293000e-01
   5.0293000e-01
   4.9804700e-01
   5.2246100e-01
   4.7851600e-01
   4.9804700e-01
   4.2968800e-01
   4.0527300e-01
   4.0039100e-01
   3.4179700e-01
   3.1250000e-01
   2.7832000e-01
   3.3203100e-01
   3.4179700e-01
   3.5156300e-01
   3.2714800e-01
   2.9296900e-01
   3.4668000e-01
   2.9296900e-01
   3.0273400e-01
   3.5644500e-01
   3.3691400e-01
   3.6132800e-01
   3.4179700e-01
   3.6132800e-01
   2.9296900e-01
   2.5878900e-01
   1.7578100e-01
   1.1230500e-01
   4.3945300e-02
  -4.3945300e-02
  -8.3007800e-02
  -9.2773400e-02
  -8.3007800e-02
  -7.8125000e-02
  -7.3242200e-02
  -1.4648400e-02
   9.7656300e-03
   1.4648400e-02
  -4.8828100e-03
  -2.9296900e-02
  -1.4648400e-02
  -6.8359400e-02
  -7.3242200e-02
  -1.1718800e-01
  -1.4648400e-01
  -1.5625000e-01
  -1.6601600e-01
  -1.7089800e-01
  -1.9043000e-01
  -2.3437500e-01
  -2.6367200e-01
  -3.1250000e-01
  -3.6621100e-01
  -4.1015600e-01
  -4.4433600e-01
  -4.7363300e-01
  -4.9804700e-01
  -5.2734400e-01
  -5.5664100e-01
  -5.8593800e-01
  -6.2011700e-01
  -6.5429700e-01
  -6.7382800e-01
  -6.8847700e-01
  -6.9335900e-01
  -6.9335900e-01
  -6.7871100e-01
  -6.4941400e-01
  -6.0546900e-01
  -5.6152300e-01
  -5.1269500e-01
  -4.7851600e-01
  -4.5898400e-01
  -4.6386700e-01
  -4.8339800e-01
  -5.2246100e-01
  -5.7128900e-01
  -6.2011700e-01
  -6.6406300e-01
  -6.9824200e-01
  -7.0800800e-01
  -7.0800800e-01
  -6.9824200e-01
  -6.8847700e-01
  -6.7871100e-01
  -6.6894500e-01
  -6.5918000e-01
  -6.4941400e-01
  -6.3964800e-01
  -6.2500000e-01
  -6.0546900e-01
  -5.8593800e-01
  -5.7128900e-01
  -5.6640600e-01
  -5.6640600e-01
  -5.7128900e-01
  -5.8593800e-01
  -5.9570300e-01
  -5.9570300e-01
  -5.8593800e-01
  -5.7128900e-01
  -5.4687500e-01
  -5.2246100e-01
  -4.9316400e-01
  -4.5410200e-01
  -4.1503900e-01
  -3.6132800e-01
  -2.9785200e-01
  -2.4414100e-01
  -2.0019500e-01
  -1.6113300e-01
  -1.3183600e-01
  -1.1230500e-01
  -9.2773400e-02
  -6.8359400e-02
  -4.8828100e-02
  -2.4414100e-02
  -9.7656300e-03
   9.7656300e-03
   2.9296900e-02
   4.3945300e-02
   5.8593800e-02
   7.3242200e-02
   8.7890600e-02
   8.7890600e-02
   8.3007800e-02
   7.8125000e-02
   7.8125000e-02
   7.8125000e-02
   7.8125000e-02
   7.3242200e-02
   5.3710900e-02
   4.8828100e-02
   3.4179700e-02
   2.9296900e-02
   2.4414100e-02
   3.9062500e-02
   6.8359400e-02
   1.0742200e-01
   1.3671900e-01
   2.1972700e-01
   2.6855500e-01
   3.2714800e-01
   4.1015600e-01
   3.9062500e-01
   4.0527300e-01
   4.4921900e-01
   4.4433600e-01
   4.8339800e-01
   5.0781300e-01
   5.0781300e-01
   4.8339800e-01
   4.7363300e-01
   4.8339800e-01
   5.4199200e-01
   4.9804700e-01
   5.5175800e-01
   5.6152300e-01
   5.3710900e-01
   5.8105500e-01
   5.4199200e-01
   5.1757800e-01
   5.0293000e-01
   5.1757800e-01
   4.9804700e-01
   5.1757800e-01
   5.5175800e-01
   5.4687500e-01
   5.2246100e-01
   5.7617200e-01
   5.5664100e-01
   5.4687500e-01
   5.0781300e-01
   5.1757800e-01
   4.9316400e-01
   4.7363300e-01
   4.4433600e-01
   3.6621100e-01
   3.6621100e-01
   3.0273400e-01
   2.7832000e-01
   2.9296900e-01
   2.2460900e-01
   2.4414100e-01
   2.1972700e-01
   2.4902300e-01
   2.1972700e-01
   1.8554700e-01
   2.0019500e-01
   1.7089800e-01
   1.2695300e-01
   1.2207000e-01
   1.1230500e-01
   1.4160200e-01
   1.1230500e-01
   9.2773400e-02
   7.8125000e-02
   6.8359400e-02
   3.9062500e-02
   3.4179700e-02
  -5.3710900e-02
  -8.3007800e-02
  -1.1718800e-01
  -1.5625000e-01
  -2.1972700e-01
  -2.6367200e-01
  -2.9785200e-01
  -3.2226600e-01
  -3.3203100e-01
  -3.4179700e-01
  -3.5156300e-01
  -3.6621100e-01
  -4.0039100e-01
  -4.3457000e-01
  -4.7363300e-01
  -5.1757800e-01
  -5.4199200e-01
  -5.7128900e-01
  -5.8593800e-01
  -5.9570300e-01
  -6.0546900e-01
  -6.2011700e-01
  -6.2988300e-01
  -6.4941400e-01
  -6.6894500e-01
  -6.9824200e-01
  -7.2265600e-01
  -7.3730500e-01
  -7.5195300e-01
  -7.5195300e-01
  -7.5195300e-01
  -7.3730500e-01
  -7.2753900e-01
  -7.0800800e-01
  -6.9824200e-01
  -6.7871100e-01
  -6.6406300e-01
  -6.5429700e-01
  -6.5429700e-01
  -6.5918000e-01
  -6.6894500e-01
  -6.8359400e-01
  -6.8847700e-01
  -6.8359400e-01
  -6.6894500e-01
  -6.4941400e-01
  -6.2988300e-01
  -6.2011700e-01
  -6.1523400e-01
  -6.2011700e-01
  -6.3964800e-01
  -6.5918000e-01
  -6.7382800e-01
  -6.8359400e-01
  -6.7871100e-01
  -6.5918000e-01
  -6.3476600e-01
  -6.0058600e-01
  -5.7128900e-01
  -5.5175800e-01
  -5.3710900e-01
  -5.2246100e-01
  -5.2246100e-01
  -5.1757800e-01
  -5.1269500e-01
  -5.0293000e-01
  -4.8828100e-01
  -4.6875000e-01
  -4.4433600e-01
  -4.2968800e-01
  -4.1015600e-01
  -3.9062500e-01
  -3.7597700e-01
  -3.5644500e-01
  -3.3691400e-01
  -3.0273400e-01
  -2.6367200e-01
  -2.1972700e-01
  -1.7089800e-01
  -1.2207000e-01
  -7.8125000e-02
  -4.8828100e-02
  -2.9296900e-02
  -2.4414100e-02
  -1.9531300e-02
  -1.9531300e-02
  -9.7656300e-03
   9.7656300e-03
   4.8828100e-02
   9.7656300e-02
   1.1718800e-01
   1.9531300e-01
   2.1484400e-01
   2.5878900e-01
   2.4414100e-01
   2.7832000e-01
   2.5390600e-01
   2.4902300e-01
   2.7832000e-01
   2.6855500e-01
   2.6855500e-01
   2.6855500e-01
   2.2949200e-01
   2.7343800e-01
   3.1250000e-01
   3.6621100e-01
   3.9550800e-01
   4.1503900e-01
   4.9316400e-01
   4.8339800e-01
   5.2246100e-01
   5.7617200e-01
   6.1523400e-01
   6.2988300e-01
   6.8847700e-01
   6.6894500e-01
   6.2500000e-01
   6.4453100e-01
   5.7617200e-01
   5.5175800e-01
   5.5664100e-01
   5.1757800e-01
   5.1757800e-01
   4.8828100e-01
   4.8828100e-01
   5.1757800e-01
   5.1757800e-01
   5.1269500e-01
   5.1757800e-01
   5.7617200e-01
   5.8593800e-01
   5.7617200e-01
   6.2011700e-01
   6.2011700e-01
   6.0058600e-01
   5.1757800e-01
   4.9804700e-01
   4.5898400e-01
   4.5410200e-01
   3.8085900e-01
   3.4179700e-01
   3.4668000e-01
   3.6621100e-01
   3.6621100e-01
   3.5156300e-01
   3.3691400e-01
   3.5644500e-01
   2.8808600e-01
   3.1738300e-01
   3.0273400e-01
   2.6367200e-01
   2.3437500e-01
   1.6601600e-01
   1.8554700e-01
   1.5136700e-01
   1.7578100e-01
   2.0507800e-01
   2.0507800e-01
   2.9296900e-01
   2.8808600e-01
   3.6132800e-01
   4.2968800e-01
   4.0527300e-01
   4.3457000e-01
   4.4433600e-01
   4.0527300e-01
   3.4179700e-01
   3.0761700e-01
   2.3437500e-01
   1.2207000e-01
   1.0253900e-01
   2.4414100e-02
  -9.7656300e-03
  -8.3007800e-02
  -1.3183600e-01
  -1.3183600e-01
  -1.6601600e-01
  -2.1972700e-01
  -2.4414100e-01
  -2.6367200e-01
  -2.8808600e-01
  -3.1250000e-01
  -3.2714800e-01
  -3.5644500e-01
  -3.7109400e-01
  -4.0039100e-01
  -4.3457000e-01
  -4.6386700e-01
  -4.9804700e-01
  -5.2734400e-01
  -5.6152300e-01
  -5.9082000e-01
  -6.1523400e-01
  -6.3476600e-01
  -6.4941400e-01
  -6.5918000e-01
  -6.5429700e-01
  -6.4453100e-01
  -6.1523400e-01
  -5.7617200e-01
  -5.2734400e-01
  -4.7851600e-01
  -4.4433600e-01
  -4.2968800e-01
  -4.2480500e-01
  -4.3457000e-01
  -4.5410200e-01
  -4.6875000e-01
  -4.9316400e-01
  -5.0781300e-01
  -5.1757800e-01
  -5.2734400e-01
  -5.3710900e-01
  -5.3222700e-01
  -5.3222700e-01
  -5.2246100e-01
  -5.1269500e-01
  -5.0293000e-01
  -4.9316400e-01
  -4.8339800e-01
  -4.8828100e-01
  -4.9316400e-01
  -5.0293000e-01
  -5.0781300e-01
  -5.0781300e-01
  -4.9804700e-01
  -4.7851600e-01
  -4.5410200e-01
  -4.3457000e-01
  -4.1503900e-01
  -4.1015600e-01
  -4.1015600e-01
  -4.1015600e-01
  -4.1503900e-01
  -4.1992200e-01
  -4.1015600e-01
  -3.9550800e-01
  -3.7597700e-01
  -3.5156300e-01
  -3.2226600e-01
  -2.8808600e-01
  -2.5878900e-01
  -2.3437500e-01
  -2.1972700e-01
  -2.1484400e-01
  -2.1972700e-01
  -2.2949200e-01
  -2.3437500e-01
  -2.3925800e-01
  -2.3437500e-01
  -2.1972700e-01
  -2.0019500e-01
  -1.7089800e-01
  -1.3183600e-01
  -9.2773400e-02
  -5.8593800e-02
  -1.9531300e-02
   9.7656300e-03
   3.9062500e-02
   5.8593800e-02
   7.3242200e-02
   8.3007800e-02
   9.2773400e-02
   9.7656300e-02
   1.0253900e-01
   1.4648400e-01
   1.3671900e-01
   1.3671900e-01
   1.8554700e-01
   1.8066400e-01
   2.0507800e-01
   1.7089800e-01
   2.2460900e-01
   2.7832000e-01
   3.1738300e-01
   3.2714800e-01
   4.2480500e-01
   4.5898400e-01
   4.8828100e-01
   5.6640600e-01
   5.4687500e-01
   5.6152300e-01
   5.6640600e-01
   5.4199200e-01
   5.2246100e-01
   5.0781300e-01
   4.9316400e-01
   5.3710900e-01
   5.6640600e-01
   6.6406300e-01
   6.3964800e-01
   6.5918000e-01
   7.0312500e-01
   6.7871100e-01
   6.2011700e-01
   6.4453100e-01
   5.7128900e-01
   5.5175800e-01
   5.6152300e-01
   5.3710900e-01
   4.7363300e-01
   4.9316400e-01
   4.7851600e-01
   4.3457000e-01
   4.5410200e-01
   4.5898400e-01
   4.7851600e-01
   4.8828100e-01
   4.6875000e-01
   4.4433600e-01
   4.3457000e-01
   4.3945300e-01
   4.4433600e-01
   4.5898400e-01
   4.7851600e-01
   4.2968800e-01
   4.0039100e-01
   3.8574200e-01
   4.0527300e-01
   3.3203100e-01
   3.1738300e-01
   3.0761700e-01
   3.2226600e-01
   3.6621100e-01
   3.6132800e-01
   3.0273400e-01
   2.8808600e-01
   2.8808600e-01
   2.1484400e-01
   1.7578100e-01
   1.0742200e-01
   6.3476600e-02
   1.9531300e-02
  -8.7890600e-02
  -1.0253900e-01
  -1.4160200e-01
  -1.9531300e-01
  -1.9531300e-01
  -1.9043000e-01
  -1.7089800e-01
  -1.7089800e-01
  -1.6601600e-01
  -1.8554700e-01
  -1.8554700e-01
  -2.0019500e-01
  -2.5390600e-01
  -2.9785200e-01
  -3.4179700e-01
  -3.9062500e-01
  -4.1992200e-01
  -4.4433600e-01
  -4.5410200e-01
  -4.4921900e-01
  -4.4433600e-01
  -4.5898400e-01
  -4.7363300e-01
  -5.0293000e-01
  -5.4687500e-01
  -6.0058600e-01
  -6.5918000e-01
  -7.1289100e-01
  -7.5683600e-01
  -7.9101600e-01
  -8.1054700e-01
  -8.2031300e-01
  -8.1543000e-01
  -7.9589800e-01
  -7.7636700e-01
  -7.4707000e-01
  -7.0800800e-01
  -6.7871100e-01
  -6.5429700e-01
  -6.3964800e-01
  -6.2988300e-01
  -6.2500000e-01
  -6.3964800e-01
  -6.5918000e-01
  -6.8359400e-01
  -7.0800800e-01
  -7.2753900e-01
  -7.4218800e-01
  -7.4218800e-01
  -7.2753900e-01
  -6.9335900e-01
  -6.5918000e-01
  -6.1523400e-01
  -5.6152300e-01
  -5.0781300e-01
  -4.6386700e-01
  -4.2968800e-01
  -4.0039100e-01
  -3.8574200e-01
  -3.8085900e-01
  -3.9550800e-01
  -4.1015600e-01
  -4.2968800e-01
  -4.3945300e-01
  -4.3945300e-01
  -4.3457000e-01
  -4.1503900e-01
  -3.8085900e-01
  -3.5156300e-01
  -3.2226600e-01
  -2.9296900e-01
  -2.7343800e-01
  -2.5390600e-01
  -2.4902300e-01
  -2.4902300e-01
  -2.4902300e-01
  -2.5390600e-01
  -2.6367200e-01
  -2.7343800e-01
  -2.8320300e-01
  -2.8808600e-01
  -2.8808600e-01
  -2.7832000e-01
  -2.5878900e-01
  -2.3437500e-01
  -2.0019500e-01
  -1.7578100e-01
  -1.5136700e-01
  -1.2207000e-01
  -9.2773400e-02
  -5.8593800e-02
  -1.4648400e-02
   3.4179700e-02
   9.2773400e-02
   1.2207000e-01
   1.6113300e-01
   2.1484400e-01
   2.3437500e-01
   2.4902300e-01
   3.2226600e-01
   3.0273400e-01
   3.5156300e-01
   3.3691400e-01
   3.4668000e-01
   2.8808600e-01
   2.8320300e-01
   2.5878900e-01
   2.8808600e-01
   2.6367200e-01
   2.4414100e-01
   2.5390600e-01
   3.0761700e-01
   3.2226600e-01
   3.5156300e-01
   4.1503900e-01
   4.2968800e-01
   4.3945300e-01
   4.1992200e-01
   4.5410200e-01
   4.4921900e-01
   5.2246100e-01
   5.0781300e-01
   5.4687500e-01
   5.5175800e-01
   5.6640600e-01
   6.4453100e-01
   6.0546900e-01
   6.7382800e-01
   7.1289100e-01
   6.7382800e-01
   7.2753900e-01
   6.7382800e-01
   6.4453100e-01
   6.5429700e-01
   5.7617200e-01
   5.7617200e-01
   5.5175800e-01
   4.8828100e-01
   5.0293000e-01
   4.9316400e-01
   4.7363300e-01
   4.3945300e-01
   3.8574200e-01
   3.2226600e-01
   3.0761700e-01
   2.9785200e-01
   2.5390600e-01
   2.8808600e-01
   2.5878900e-01
   2.7343800e-01
   2.3437500e-01
   2.6367200e-01
   2.3437500e-01
   2.4414100e-01
   2.4414100e-01
   2.8320300e-01
   2.2460900e-01
   2.0996100e-01
   2.3437500e-01
   1.9043000e-01
   1.5625000e-01
   1.8066400e-01
   1.3671900e-01
   1.1718800e-01
   1.3671900e-01
   9.2773400e-02
   7.8125000e-02
   1.9531300e-02
   4.8828100e-03
  -2.9296900e-02
  -4.3945300e-02
  -1.9531300e-02
  -4.3945300e-02
  -1.9531300e-02
  -6.8359400e-02
  -5.3710900e-02
  -1.1718800e-01
  -1.3183600e-01
  -1.3183600e-01
  -1.7089800e-01
  -1.5625000e-01
  -1.7578100e-01
  -2.0019500e-01
  -2.0507800e-01
  -2.5390600e-01
  -2.8808600e-01
  -3.1738300e-01
  -3.4179700e-01
  -3.6132800e-01
  -3.9062500e-01
  -4.1015600e-01
  -4.3945300e-01
  -4.7851600e-01
  -5.1269500e-01
  -5.5664100e-01
  -5.9082000e-01
  -6.2011700e-01
  -6.3964800e-01
  -6.5429700e-01
  -6.6894500e-01
  -6.6894500e-01
  -6.6894500e-01
  -6.6406300e-01
  -6.4941400e-01
  -6.3476600e-01
  -6.1035200e-01
  -5.9570300e-01
  -5.9082000e-01
  -6.0546900e-01
  -6.3476600e-01
  -6.7382800e-01
  -7.1777300e-01
  -7.6171900e-01
  -8.0566400e-01
  -8.3496100e-01
  -8.5937500e-01
  -8.7890600e-01
  -8.8378900e-01
  -8.8867200e-01
  -8.7890600e-01
  -8.5449200e-01
  -8.2031300e-01
  -7.8125000e-01
  -7.3730500e-01
  -6.9335900e-01
  -6.5918000e-01
  -6.2011700e-01
  -5.9082000e-01
  -5.5175800e-01
  -5.1757800e-01
  -4.8828100e-01
  -4.5898400e-01
  -4.4433600e-01
  -4.4433600e-01
  -4.5410200e-01
  -4.6875000e-01
  -4.7851600e-01
  -4.8828100e-01
  -4.8339800e-01
  -4.6386700e-01
  -4.4433600e-01
  -4.1992200e-01
  -4.0039100e-01
  -3.8574200e-01
  -3.7597700e-01
  -3.6132800e-01
  -3.4668000e-01
  -3.2226600e-01
  -2.9296900e-01
  -2.5878900e-01
  -2.1484400e-01
  -1.8066400e-01
  -1.5136700e-01
  -1.2207000e-01
  -1.0742200e-01
  -9.2773400e-02
  -8.3007800e-02
  -5.8593800e-02
  -2.9296900e-02
   4.8828100e-03
   4.3945300e-02
   7.3242200e-02
   8.3007800e-02
   1.0253900e-01
   1.0253900e-01
   1.1230500e-01
   8.3007800e-02
   1.1718800e-01
   1.2207000e-01
   1.3183600e-01
   1.6601600e-01
   2.0019500e-01
   2.6367200e-01
   2.3925800e-01
   3.2714800e-01
   3.4179700e-01
   3.8574200e-01
   4.0527300e-01
   3.9550800e-01
   3.9062500e-01
   4.1992200e-01
   4.5410200e-01
   4.6875000e-01
   5.0293000e-01
   5.1269500e-01
   5.4199200e-01
   4.9316400e-01
   5.0781300e-01
   5.1269500e-01
   5.4199200e-01
   5.6640600e-01
   5.6640600e-01
   5.6640600e-01
   5.6152300e-01
   5.6640600e-01
   5.7617200e-01
   5.3222700e-01
   5.7617200e-01
   5.7617200e-01
   6.5429700e-01
   6.2011700e-01
   6.6894500e-01
   7.1777300e-01
   6.5918000e-01
   6.6894500e-01
   6.8359400e-01
   5.9082000e-01
   5.8593800e-01
   5.3710900e-01
   4.6386700e-01
   4.6386700e-01
   4.4921900e-01
   4.2968800e-01
   4.1015600e-01
   3.4668000e-01
   3.5156300e-01
   3.7109400e-01
   3.1250000e-01
   3.1738300e-01
   3.2714800e-01
   3.7597700e-01
   3.8574200e-01
   3.7597700e-01
   4.2480500e-01
   4.3945300e-01
   4.5410200e-01
   4.3945300e-01
   4.5410200e-01
   4.6875000e-01
   4.3945300e-01
   4.5410200e-01
   4.3457000e-01
   4.3945300e-01
   4.1992200e-01
   3.4668000e-01
   3.2714800e-01
   2.8320300e-01
   2.1484400e-01
   1.1230500e-01
   5.3710900e-02
   0.0000000e+00
  -4.8828100e-03
  -3.9062500e-02
  -9.7656300e-02
  -9.2773400e-02
  -1.3671900e-01
  -1.7089800e-01
  -1.8554700e-01
  -2.0019500e-01
  -2.5390600e-01
  -2.9785200e-01
  -3.3203100e-01
  -3.6621100e-01
  -3.8085900e-01
  -3.7597700e-01
  -3.6621100e-01
  -3.3203100e-01
  -3.1250000e-01
  -2.7832000e-01
  -2.6367200e-01
  -2.6855500e-01
  -2.8320300e-01
  -3.2226600e-01
  -3.8574200e-01
  -4.6386700e-01
  -5.4687500e-01
  -6.2988300e-01
  -6.9824200e-01
  -7.4707000e-01
  -7.8125000e-01
  -7.9589800e-01
  -7.9589800e-01
  -7.8613300e-01
  -7.6660200e-01
  -7.4707000e-01
  -7.2753900e-01
  -7.1289100e-01
  -6.9824200e-01
  -6.9335900e-01
  -6.9335900e-01
  -7.0800800e-01
  -7.3242200e-01
  -7.6171900e-01
  -7.9101600e-01
  -8.1543000e-01
  -8.2519500e-01
  -8.3007800e-01
  -8.1543000e-01
  -7.8613300e-01
  -7.4707000e-01
  -7.1289100e-01
  -6.7382800e-01
  -6.3476600e-01
  -6.0058600e-01
  -5.7617200e-01
  -5.6152300e-01
  -5.5175800e-01
  -5.5175800e-01
  -5.5664100e-01
  -5.6640600e-01
  -5.7617200e-01
  -5.8105500e-01
  -5.8105500e-01
  -5.7617200e-01
  -5.6152300e-01
  -5.4687500e-01
  -5.3222700e-01
  -5.0781300e-01
  -4.8339800e-01
  -4.5410200e-01
  -4.2480500e-01
  -3.9550800e-01
  -3.6621100e-01
  -3.4179700e-01
  -3.1250000e-01
  -2.9785200e-01
  -2.9296900e-01
  -2.8320300e-01
  -2.7832000e-01
  -2.6367200e-01
  -2.5390600e-01
  -2.3437500e-01
  -2.0507800e-01
  -1.7089800e-01
  -1.4160200e-01
  -1.0253900e-01
  -5.8593800e-02
  -9.7656300e-03
   4.3945300e-02
   9.2773400e-02
   1.1718800e-01
   1.9043000e-01
   2.3437500e-01
   2.2949200e-01
   2.4414100e-01
   2.9785200e-01
   3.3691400e-01
   3.7597700e-01
   3.7597700e-01
   3.6132800e-01
   4.1015600e-01
   3.7597700e-01
   3.5644500e-01
   3.9550800e-01
   4.2480500e-01
   4.3457000e-01
   3.9550800e-01
   4.6386700e-01
   4.3457000e-01
   5.0293000e-01
   4.8339800e-01
   5.1757800e-01
   4.6875000e-01
   4.7851600e-01
   4.8828100e-01
   4.8828100e-01
   4.9804700e-01
   5.1757800e-01
   5.3222700e-01
   5.1757800e-01
   5.4199200e-01
   5.7617200e-01
   5.3710900e-01
   5.5664100e-01
   5.6152300e-01
   5.6152300e-01
   5.9082000e-01
   6.1523400e-01
   6.2011700e-01
   6.1523400e-01
   6.0058600e-01
   6.0058600e-01
   5.9570300e-01
   5.9570300e-01
   5.8105500e-01
   5.7617200e-01
   6.4453100e-01
   6.0058600e-01
   6.4941400e-01
   5.9570300e-01
   6.2011700e-01
   6.1523400e-01
   5.8105500e-01
   5.5664100e-01
   4.8828100e-01
   4.7851600e-01
   3.9550800e-01
   3.9550800e-01
   2.9785200e-01
   3.1250000e-01
   2.4414100e-01
   2.5878900e-01
   2.7343800e-01
   2.7343800e-01
   2.9296900e-01
   2.8320300e-01
   3.3691400e-01
   3.1738300e-01
   2.5878900e-01
   2.8320300e-01
   1.9531300e-01
   1.6113300e-01
   1.3671900e-01
   1.2695300e-01
   9.2773400e-02
   7.8125000e-02
   1.9531300e-02
   9.7656300e-03
   4.3945300e-02
   4.8828100e-02
   1.9531300e-02
   9.7656300e-03
   0.0000000e+00
   4.8828100e-03
  -2.4414100e-02
  -7.8125000e-02
  -8.3007800e-02
  -1.3183600e-01
  -1.7578100e-01
  -2.2949200e-01
  -2.8320300e-01
  -3.3203100e-01
  -3.7597700e-01
  -4.0527300e-01
  -4.1503900e-01
  -4.3457000e-01
  -4.3457000e-01
  -4.4433600e-01
  -4.5898400e-01
  -4.8828100e-01
  -5.1269500e-01
  -5.4687500e-01
  -5.7617200e-01
  -6.0546900e-01
  -6.1523400e-01
  -6.0546900e-01
  -5.9082000e-01
  -5.7128900e-01
  -5.4687500e-01
  -5.3710900e-01
  -5.3710900e-01
  -5.4199200e-01
  -5.6640600e-01
  -5.8593800e-01
  -6.1035200e-01
  -6.2500000e-01
  -6.3964800e-01
  -6.4453100e-01
  -6.3964800e-01
  -6.3476600e-01
  -6.2500000e-01
  -6.0058600e-01
  -5.7617200e-01
  -5.5664100e-01
  -5.4199200e-01
  -5.3222700e-01
  -5.2246100e-01
  -5.1757800e-01
  -5.0293000e-01
  -4.9804700e-01
  -4.8828100e-01
  -4.6875000e-01
  -4.4433600e-01
  -4.2968800e-01
  -4.1503900e-01
  -4.0039100e-01
  -3.9062500e-01
  -3.9550800e-01
  -4.0039100e-01
  -4.1015600e-01
  -4.1503900e-01
  -4.2480500e-01
  -4.3457000e-01
  -4.4433600e-01
  -4.5410200e-01
  -4.5898400e-01
  -4.5410200e-01
  -4.3945300e-01
  -4.1992200e-01
  -3.9062500e-01
  -3.5644500e-01
  -3.1738300e-01
  -2.8320300e-01
  -2.4902300e-01
  -2.2460900e-01
  -2.0996100e-01
  -2.0019500e-01
  -1.9043000e-01
  -1.8066400e-01
  -1.7089800e-01
  -1.5136700e-01
  -1.2207000e-01
  -9.2773400e-02
  -5.8593800e-02
  -1.9531300e-02
   2.4414100e-02
   6.8359400e-02
   9.7656300e-02
   1.4648400e-01
   1.2207000e-01
   1.3183600e-01
   1.8066400e-01
   1.4160200e-01
   1.6113300e-01
   1.5136700e-01
   1.6113300e-01
   1.6601600e-01
   1.6113300e-01
   1.8066400e-01
   1.8554700e-01
   2.3437500e-01
   2.3437500e-01
   2.9785200e-01
   3.6132800e-01
   3.9062500e-01
   4.6386700e-01
   4.5898400e-01
   5.1757800e-01
   5.2246100e-01
   5.2734400e-01
   4.9316400e-01
   5.4199200e-01
   5.0293000e-01
   4.9804700e-01
   5.2246100e-01
   4.6386700e-01
   4.4921900e-01
   4.4433600e-01
   4.9316400e-01
   4.4433600e-01
   4.3457000e-01
   4.2968800e-01
   4.9316400e-01
   4.8339800e-01
   4.8828100e-01
   4.8339800e-01
   5.3710900e-01
   5.5664100e-01
   5.5175800e-01
   4.8828100e-01
   4.6875000e-01
   5.0293000e-01
   4.5410200e-01
   4.3945300e-01
   4.1503900e-01
   3.9550800e-01
   4.2480500e-01
   3.9062500e-01
   3.9062500e-01
   4.1992200e-01
   4.0039100e-01
   3.7109400e-01
   3.0273400e-01
   2.8808600e-01
   2.7832000e-01
   3.2226600e-01
   3.0273400e-01
   2.7343800e-01
   3.1738300e-01
   3.0273400e-01
   2.8808600e-01
   2.4414100e-01
   2.3925800e-01
   2.2460900e-01
   2.4902300e-01
   2.3925800e-01
   2.9296900e-01
   2.5878900e-01
   2.9296900e-01
   2.3925800e-01
   2.3437500e-01
   2.3925800e-01
   2.0019500e-01
   1.7089800e-01
   1.3183600e-01
   6.3476600e-02
   2.9296900e-02
  -4.8828100e-03
  -5.3710900e-02
  -6.8359400e-02
  -1.1230500e-01
  -1.4648400e-01
  -1.8066400e-01
  -1.8554700e-01
  -1.9531300e-01
  -2.3925800e-01
  -2.5878900e-01
  -2.8320300e-01
  -3.0761700e-01
  -3.3691400e-01
  -3.6132800e-01
  -3.8085900e-01
  -3.9062500e-01
  -4.1503900e-01
  -4.2968800e-01
  -4.5410200e-01
  -4.6875000e-01
  -4.9316400e-01
  -5.1269500e-01
  -5.3222700e-01
  -5.4687500e-01
  -5.6152300e-01
  -5.7617200e-01
  -5.9082000e-01
  -5.9570300e-01
  -6.0058600e-01
  -6.0058600e-01
  -6.0058600e-01
  -5.9570300e-01
  -5.9082000e-01
  -5.9570300e-01
  -6.1035200e-01
  -6.2988300e-01
  -6.5429700e-01
  -6.7871100e-01
  -6.9335900e-01
  -6.9824200e-01
  -6.9824200e-01
  -6.8359400e-01
  -6.6406300e-01
  -6.3964800e-01
  -6.1523400e-01
  -5.9082000e-01
  -5.6640600e-01
  -5.5664100e-01
  -5.5175800e-01
  -5.5664100e-01
  -5.8105500e-01
  -6.0058600e-01
  -6.1523400e-01
  -6.2500000e-01
  -6.2988300e-01
  -6.2500000e-01
  -6.2500000e-01
  -6.2011700e-01
  -6.1035200e-01
  -6.1523400e-01
  -6.1523400e-01
  -6.1035200e-01
  -6.0058600e-01
  -5.8105500e-01
  -5.5175800e-01
  -5.1269500e-01
  -4.6386700e-01
  -4.1992200e-01
  -3.9062500e-01
  -3.7109400e-01
  -3.6132800e-01
  -3.5156300e-01
  -3.3691400e-01
  -3.1738300e-01
  -2.8808600e-01
  -2.4902300e-01
  -2.1484400e-01
  -1.9043000e-01
  -1.7578100e-01
  -1.6601600e-01
  -1.6601600e-01
  -1.7578100e-01
  -1.8554700e-01
  -1.8554700e-01
  -1.8554700e-01
  -1.7089800e-01
  -1.5136700e-01
  -1.1230500e-01
  -7.3242200e-02
  -2.4414100e-02
   2.4414100e-02
   7.3242200e-02
   1.2207000e-01
   1.3671900e-01
   1.8554700e-01
   2.0507800e-01
   2.4414100e-01
   3.1250000e-01
   2.9785200e-01
   3.2714800e-01
   2.9296900e-01
   2.7832000e-01
   2.0507800e-01
   2.2460900e-01
   1.8554700e-01
   1.8554700e-01
   2.4414100e-01
   2.6855500e-01
   3.0273400e-01
   4.0527300e-01
   4.0527300e-01
   4.8828100e-01
   4.9804700e-01
   5.0781300e-01
   4.7851600e-01
   4.7851600e-01
   4.8828100e-01
   4.4433600e-01
   4.6875000e-01
   5.3222700e-01
   5.3222700e-01
   5.6640600e-01
   5.3710900e-01
   5.9082000e-01
   5.5175800e-01
   5.4199200e-01
   5.6152300e-01
   5.7617200e-01
   5.8593800e-01
   5.8593800e-01
   5.8593800e-01
   5.9082000e-01
   5.7617200e-01
   5.5664100e-01
   4.7851600e-01
   4.9316400e-01
   4.2968800e-01
   4.7363300e-01
   4.6875000e-01
   4.6386700e-01
   4.1503900e-01
   4.6386700e-01
   4.5410200e-01
   4.3457000e-01
   3.5644500e-01
   3.3691400e-01
   3.4179700e-01
   3.1250000e-01
   3.4179700e-01
   2.9785200e-01
   3.3691400e-01
   3.0761700e-01
   3.0761700e-01
   3.1738300e-01
   3.0761700e-01
   3.4179700e-01
   3.2226600e-01
   2.9296900e-01
   2.8320300e-01
   2.9296900e-01
   2.5390600e-01
   2.3437500e-01
   2.2460900e-01
   1.8554700e-01
   1.7578100e-01
   1.2695300e-01
   1.0253900e-01
   1.0253900e-01
   2.9296900e-02
   4.8828100e-03
  -8.7890600e-02
  -1.2207000e-01
  -1.6601600e-01
  -2.0507800e-01
  -2.3437500e-01
  -2.4414100e-01
  -2.6367200e-01
  -2.9296900e-01
  -3.2714800e-01
  -3.6621100e-01
  -4.0527300e-01
  -4.3945300e-01
  -4.6386700e-01
  -4.6875000e-01
  -4.7363300e-01
  -4.6875000e-01
  -4.6386700e-01
  -4.5410200e-01
  -4.5898400e-01
  -4.7363300e-01
  -4.9804700e-01
  -5.3222700e-01
  -5.7128900e-01
  -6.0546900e-01
  -6.3476600e-01
  -6.5429700e-01
  -6.6894500e-01
  -6.7871100e-01
  -6.8847700e-01
  -6.9824200e-01
  -7.0800800e-01
  -7.1777300e-01
  -7.2265600e-01
  -7.2265600e-01
  -7.1289100e-01
  -6.9824200e-01
  -6.8359400e-01
  -6.6894500e-01
  -6.5429700e-01
  -6.4453100e-01
  -6.3476600e-01
  -6.2988300e-01
  -6.2011700e-01
  -6.1035200e-01
  -6.0546900e-01
  -6.0058600e-01
  -5.9082000e-01
  -5.9082000e-01
  -5.9082000e-01
  -5.8593800e-01
  -5.9082000e-01
  -5.9082000e-01
  -5.9082000e-01
  -5.9082000e-01
  -5.8105500e-01
  -5.7128900e-01
  -5.5664100e-01
  -5.4687500e-01
  -5.3222700e-01
  -5.2246100e-01
  -5.2246100e-01
  -5.1269500e-01
  -5.0781300e-01
  -5.0293000e-01
  -4.9316400e-01
  -4.7363300e-01
  -4.5898400e-01
  -4.3457000e-01
  -4.1015600e-01
  -3.8085900e-01
  -3.4668000e-01
  -3.1250000e-01
  -2.8320300e-01
  -2.5390600e-01
  -2.2949200e-01
  -2.0996100e-01
  -1.9043000e-01
  -1.7089800e-01
  -1.4648400e-01
  -1.3183600e-01
  -1.1718800e-01
  -9.7656300e-02
  -9.2773400e-02
  -8.7890600e-02
  -8.7890600e-02
  -8.7890600e-02
  -7.8125000e-02
  -5.8593800e-02
  -2.9296900e-02
   4.8828100e-03
   4.8828100e-02
   9.7656300e-02
   1.5625000e-01
   1.7578100e-01
   2.4902300e-01
   3.2714800e-01
   3.2226600e-01
   3.5644500e-01
   3.4179700e-01
   3.9550800e-01
   3.6621100e-01
   4.1503900e-01
   4.4433600e-01
   4.5898400e-01
   4.3457000e-01
   4.7363300e-01
   5.3222700e-01
   5.2246100e-01
   4.8339800e-01
   4.6875000e-01
   5.0293000e-01
   4.4433600e-01
   4.6875000e-01
   4.8828100e-01
   4.7851600e-01
   4.7851600e-01
   5.1757800e-01
   5.8593800e-01
   5.9082000e-01
   6.3964800e-01
   6.1035200e-01
   6.6894500e-01
   6.3476600e-01
   6.2988300e-01
   6.7382800e-01
   6.0546900e-01
   6.3476600e-01
   5.8105500e-01
   5.9082000e-01
   5.2734400e-01
   5.0781300e-01
   5.0781300e-01
   4.2480500e-01
   4.3457000e-01
   3.4668000e-01
   3.6132800e-01
   3.0761700e-01
   2.9296900e-01
   3.2714800e-01
   2.8808600e-01
   2.8808600e-01
   3.0273400e-01
   2.9296900e-01
   3.0273400e-01
   2.9785200e-01
   2.4414100e-01
   2.7343800e-01
   2.4414100e-01
   2.2949200e-01
   2.4414100e-01
   2.1972700e-01
   2.0019500e-01
   2.3925800e-01
   2.0019500e-01
   1.9531300e-01
   2.2460900e-01
   2.0996100e-01
   2.1972700e-01
   1.9043000e-01
   1.5136700e-01
   6.8359400e-02
   1.4648400e-02
  -3.4179700e-02
  -4.8828100e-02
  -1.2695300e-01
  -1.6113300e-01
  -1.6113300e-01
  -1.6601600e-01
  -1.6601600e-01
  -1.5136700e-01
  -1.8066400e-01
  -1.4648400e-01
  -1.7089800e-01
  -1.7578100e-01
  -2.2949200e-01
  -2.7343800e-01
  -3.3203100e-01
  -3.8574200e-01
  -4.3457000e-01
  -4.6386700e-01
  -4.7851600e-01
  -4.5410200e-01
  -4.1992200e-01
  -3.9062500e-01
  -3.5644500e-01
  -3.3203100e-01
  -3.3203100e-01
  -3.4179700e-01
  -3.6621100e-01
  -4.0039100e-01
  -4.4433600e-01
  -4.7851600e-01
  -5.1757800e-01
  -5.4687500e-01
  -5.7128900e-01
  -5.8593800e-01
  -5.9570300e-01
  -6.0058600e-01
  -5.9570300e-01
  -5.9082000e-01
  -5.9082000e-01
  -6.0058600e-01
  -6.2011700e-01
  -6.3964800e-01
  -6.6894500e-01
  -7.0312500e-01
  -7.4707000e-01
  -7.9101600e-01
  -8.2519500e-01
  -8.5937500e-01
  -8.7890600e-01
  -8.7890600e-01
  -8.6425800e-01
  -8.3007800e-01
  -7.8613300e-01
  -7.3242200e-01
  -6.7871100e-01
  -6.2011700e-01
  -5.6152300e-01
  -5.0293000e-01
  -4.5410200e-01
  -4.1992200e-01
  -4.0039100e-01
  -3.9550800e-01
  -4.0527300e-01
  -4.2480500e-01
  -4.4921900e-01
  -4.7851600e-01
  -4.9804700e-01
  -5.1269500e-01
  -5.0781300e-01
  -4.9804700e-01
  -4.8828100e-01
  -4.6386700e-01
  -4.3457000e-01
  -4.1503900e-01
  -3.9062500e-01
  -3.6621100e-01
  -3.3691400e-01
  -3.0761700e-01
  -2.7832000e-01
  -2.4414100e-01
  -2.1484400e-01
  -1.8554700e-01
  -1.6113300e-01
  -1.3671900e-01
  -1.1718800e-01
  -9.2773400e-02
  -7.3242200e-02
  -4.8828100e-02
  -2.4414100e-02
   1.4648400e-02
   6.3476600e-02
   1.4160200e-01
   2.0019500e-01
   2.0019500e-01
   2.9296900e-01
   3.0761700e-01
   3.0273400e-01
   3.6132800e-01
   3.6621100e-01
   3.4179700e-01
   3.6132800e-01
   3.0761700e-01
   3.2226600e-01
   2.5878900e-01
   2.4902300e-01
   1.9531300e-01
   2.3925800e-01
   2.0507800e-01
   2.2460900e-01
   2.6367200e-01
   3.2714800e-01
   3.2714800e-01
   3.5156300e-01
   4.0527300e-01
   4.4433600e-01
   4.2480500e-01
   4.6875000e-01
   4.9316400e-01
   4.7363300e-01
   5.5175800e-01
   5.5664100e-01
   5.8593800e-01
   5.8105500e-01
   6.1035200e-01
   6.2988300e-01
   6.1035200e-01
   5.8105500e-01
   6.4453100e-01
   6.0546900e-01
   6.7382800e-01
   6.6406300e-01
   6.3476600e-01
   6.6406300e-01
   6.6406300e-01
   6.0058600e-01
   5.9082000e-01
   5.8105500e-01
   5.3710900e-01
   5.5664100e-01
   5.9082000e-01
   5.2734400e-01
   5.7617200e-01
   5.2734400e-01
   5.4199200e-01
   5.1757800e-01
   4.6875000e-01
   4.2968800e-01
   4.1015600e-01
   4.2480500e-01
   4.3457000e-01
   4.1992200e-01
   3.8085900e-01
   3.8085900e-01
   3.7109400e-01
   3.3691400e-01
   3.2714800e-01
   2.4414100e-01
   2.3925800e-01
   2.2949200e-01
   2.4414100e-01
   2.6855500e-01
   2.9296900e-01
   3.3203100e-01
   3.2226600e-01
   3.7597700e-01
   3.3203100e-01
   3.2714800e-01
   3.6132800e-01
   2.7832000e-01
   2.4414100e-01
   2.3437500e-01
   1.8554700e-01
   1.3183600e-01
   7.8125000e-02
   2.9296900e-02
  -9.7656300e-03
  -4.8828100e-02
  -5.3710900e-02
  -6.8359400e-02
  -8.7890600e-02
  -8.3007800e-02
  -1.1718800e-01
  -1.2207000e-01
  -9.2773400e-02
  -1.0742200e-01
  -5.8593800e-02
  -8.3007800e-02
  -8.7890600e-02
  -1.1718800e-01
  -1.9043000e-01
  -2.2949200e-01
  -3.0761700e-01
  -3.9062500e-01
  -4.8339800e-01
  -5.7128900e-01
  -6.5429700e-01
  -7.2753900e-01
  -7.8125000e-01
  -8.1543000e-01
  -8.3496100e-01
  -8.3496100e-01
  -8.2519500e-01
  -8.0566400e-01
  -7.8613300e-01
  -7.7636700e-01
  -7.6660200e-01
  -7.6660200e-01
  -7.7636700e-01
  -7.9101600e-01
  -8.0566400e-01
  -8.1054700e-01
  -8.1054700e-01
  -8.0566400e-01
  -7.9101600e-01
  -7.7636700e-01
  -7.6171900e-01
  -7.4707000e-01
  -7.3730500e-01
  -7.3730500e-01
  -7.4218800e-01
  -7.4707000e-01
  -7.6171900e-01
  -7.7636700e-01
  -7.8613300e-01
  -7.9101600e-01
  -7.8613300e-01
  -7.6660200e-01
  -7.3730500e-01
  -6.9824200e-01
  -6.5918000e-01
  -6.1523400e-01
  -5.7128900e-01
  -5.2734400e-01
  -4.9316400e-01
  -4.6875000e-01
  -4.5410200e-01
  -4.4433600e-01
  -4.3945300e-01
  -4.3457000e-01
  -4.2480500e-01
  -4.1015600e-01
  -4.0039100e-01
  -3.9062500e-01
  -3.9062500e-01
  -3.9550800e-01
  -4.0039100e-01
  -4.0039100e-01
  -4.0039100e-01
  -3.9062500e-01
  -3.7597700e-01
  -3.6132800e-01
  -3.3203100e-01
  -3.0761700e-01
  -2.8320300e-01
  -2.5390600e-01
  -2.2949200e-01
  -2.0507800e-01
  -1.7578100e-01
  -1.4160200e-01
  -9.7656300e-02
  -3.9062500e-02
   3.4179700e-02
   1.1230500e-01
   1.9043000e-01
   3.0761700e-01
   3.5156300e-01
   3.9550800e-01
   3.7109400e-01
   4.0039100e-01
   4.0039100e-01
   3.7597700e-01
   3.0761700e-01
   3.3203100e-01
   3.2226600e-01
   2.8320300e-01
   3.0273400e-01
   2.9296900e-01
   3.1250000e-01
   3.4179700e-01
   3.8574200e-01
   3.7109400e-01
   4.2480500e-01
   4.0039100e-01
   3.9062500e-01
   3.4668000e-01
   3.8085900e-01
   3.8085900e-01
   3.5156300e-01
   4.0039100e-01
   4.0527300e-01
   4.7363300e-01
   5.0293000e-01
   5.5175800e-01
   5.7128900e-01
   6.0058600e-01
   6.2500000e-01
   5.9082000e-01
   6.5918000e-01
   6.0546900e-01
   6.4941400e-01
   5.8105500e-01
   6.0546900e-01
   5.7128900e-01
   5.4199200e-01
   5.0781300e-01
   5.1269500e-01
   5.5175800e-01
   5.1269500e-01
   5.0293000e-01
   5.1269500e-01
   5.1269500e-01
   5.2734400e-01
   5.7617200e-01
   5.2734400e-01
   5.3222700e-01
   5.6640600e-01
   5.4199200e-01
   4.9804700e-01
   4.6875000e-01
   4.9316400e-01
   4.4433600e-01
   4.3945300e-01
   4.7363300e-01
   4.1992200e-01
   4.1503900e-01
   4.0039100e-01
   3.8085900e-01
   3.8574200e-01
   3.9062500e-01
   3.0761700e-01
   2.6855500e-01
   2.4902300e-01
   1.8066400e-01
   1.5625000e-01
   1.1718800e-01
   9.2773400e-02
   8.7890600e-02
   1.4648400e-02
   1.4648400e-02
  -6.3476600e-02
  -1.0742200e-01
  -1.1718800e-01
  -1.6113300e-01
  -1.6113300e-01
  -2.0996100e-01
  -2.1484400e-01
  -1.8554700e-01
  -1.6601600e-01
  -1.6601600e-01
  -1.4648400e-01
  -1.1230500e-01
  -1.3671900e-01
  -1.5625000e-01
  -1.8554700e-01
  -1.9531300e-01
  -2.5390600e-01
  -3.0273400e-01
  -3.5156300e-01
  -3.8085900e-01
  -4.2480500e-01
  -4.6875000e-01
  -5.0293000e-01
  -5.3710900e-01
  -5.6152300e-01
  -5.7617200e-01
  -5.7617200e-01
  -5.5664100e-01
  -5.2246100e-01
  -4.9316400e-01
  -4.6386700e-01
  -4.4921900e-01
  -4.4433600e-01
  -4.5410200e-01
  -4.7363300e-01
  -4.9316400e-01
  -5.1757800e-01
  -5.3710900e-01
  -5.5664100e-01
  -5.7128900e-01
  -5.9082000e-01
  -6.0546900e-01
  -6.2988300e-01
  -6.5918000e-01
  -6.9335900e-01
  -7.2753900e-01
  -7.6171900e-01
  -7.9101600e-01
  -8.1054700e-01
  -8.1543000e-01
  -8.1054700e-01
  -7.9589800e-01
  -7.6660200e-01
  -7.3242200e-01
  -6.8847700e-01
  -6.4941400e-01
  -6.1035200e-01
  -5.7617200e-01
  -5.3710900e-01
  -5.0781300e-01
  -4.7851600e-01
  -4.4921900e-01
  -4.2968800e-01
  -4.1015600e-01
  -4.0039100e-01
  -3.9550800e-01
  -3.9062500e-01
  -3.9550800e-01
  -4.0039100e-01
  -3.9550800e-01
  -4.0039100e-01
  -4.0039100e-01
  -4.0527300e-01
  -4.1503900e-01
  -4.1992200e-01
  -4.1992200e-01
  -4.0527300e-01
  -3.9062500e-01
  -3.6132800e-01
  -3.2714800e-01
  -2.9296900e-01
  -2.5878900e-01
  -2.1484400e-01
  -1.7578100e-01
  -1.3671900e-01
  -8.7890600e-02
  -4.3945300e-02
   0.0000000e+00
   4.3945300e-02
   8.3007800e-02
   1.3183600e-01
   1.2207000e-01
   1.1718800e-01
   1.2695300e-01
   1.3183600e-01
   1.2695300e-01
   1.8066400e-01
   1.5625000e-01
   1.8066400e-01
   1.8554700e-01
   1.8066400e-01
   1.5625000e-01
   1.5136700e-01
   2.2460900e-01
   2.0996100e-01
   2.1484400e-01
   2.7832000e-01
   2.6367200e-01
   3.3691400e-01
   3.1250000e-01
   3.9062500e-01
   3.9550800e-01
   4.3457000e-01
   4.3457000e-01
   5.3222700e-01
   5.0781300e-01
   6.0058600e-01
   6.2500000e-01
   6.0058600e-01
   6.7382800e-01
   6.8359400e-01
   6.7382800e-01
   7.4218800e-01
   6.9335900e-01
   7.4218800e-01
   6.5918000e-01
   6.6406300e-01
   6.7382800e-01
   6.0058600e-01
   6.3476600e-01
   5.7617200e-01
   6.3476600e-01
   6.1523400e-01
   5.7617200e-01
   5.7617200e-01
   5.0781300e-01
   5.2246100e-01
   4.4433600e-01
   4.6386700e-01
   3.8085900e-01
   4.0039100e-01
   3.8574200e-01
   4.2480500e-01
   4.2480500e-01
   4.3457000e-01
   5.2246100e-01
   5.1269500e-01
   5.4687500e-01
   5.3710900e-01
   5.2734400e-01
   4.6386700e-01
   4.3457000e-01
   3.4668000e-01
   3.0761700e-01
   2.9785200e-01
   2.4414100e-01
   1.8554700e-01
   2.1484400e-01
   1.9531300e-01
   1.7578100e-01
   2.1972700e-01
   2.1972700e-01
   1.9043000e-01
   2.3925800e-01
   2.2949200e-01
   1.9531300e-01
   1.8066400e-01
   1.4648400e-01
   1.1718800e-01
   1.0742200e-01
   3.9062500e-02
   1.4648400e-02
   1.9531300e-02
  -9.7656300e-03
  -3.4179700e-02
  -8.7890600e-02
  -1.1230500e-01
  -1.1230500e-01
  -1.5625000e-01
  -1.9531300e-01
  -2.5878900e-01
  -3.0273400e-01
  -3.4668000e-01
  -3.8085900e-01
  -4.0039100e-01
  -4.0527300e-01
  -4.1503900e-01
  -3.9550800e-01
  -3.9550800e-01
  -3.9062500e-01
  -3.8574200e-01
  -3.8574200e-01
  -3.9550800e-01
  -4.1503900e-01
  -4.4433600e-01
  -4.7851600e-01
  -5.1757800e-01
  -5.6152300e-01
  -6.0058600e-01
  -6.3476600e-01
  -6.6406300e-01
  -6.9335900e-01
  -7.2265600e-01
  -7.5195300e-01
  -7.9101600e-01
  -8.2031300e-01
  -8.3496100e-01
  -8.4472700e-01
  -8.4472700e-01
  -8.2519500e-01
  -8.0566400e-01
  -7.8613300e-01
  -7.7148400e-01
  -7.6171900e-01
  -7.5683600e-01
  -7.6171900e-01
  -7.6660200e-01
  -7.6660200e-01
  -7.7148400e-01
  -7.7148400e-01
  -7.6660200e-01
  -7.4707000e-01
  -7.1289100e-01
  -6.6894500e-01
  -6.1035200e-01
  -5.4687500e-01
  -4.8339800e-01
  -4.2480500e-01
  -3.7109400e-01
  -3.3691400e-01
  -3.1738300e-01
  -3.0273400e-01
  -3.0761700e-01
  -3.1738300e-01
  -3.3691400e-01
  -3.5156300e-01
  -3.6621100e-01
  -3.7597700e-01
  -3.8085900e-01
  -3.8574200e-01
  -3.9062500e-01
  -4.0039100e-01
  -4.1015600e-01
  -4.1992200e-01
  -4.2480500e-01
  -4.1015600e-01
  -3.8574200e-01
  -3.4668000e-01
  -2.8808600e-01
  -2.2460900e-01
  -1.5625000e-01
  -9.7656300e-02
  -3.9062500e-02
   4.8828100e-03
   4.3945300e-02
   6.3476600e-02
   6.8359400e-02
   7.3242200e-02
   6.8359400e-02
   6.8359400e-02
   7.8125000e-02
   8.7890600e-02
   9.7656300e-02
   1.0742200e-01
   8.3007800e-02
   1.2207000e-01
   8.3007800e-02
   1.0253900e-01
   1.0742200e-01
   1.4648400e-01
   1.2695300e-01
   1.9043000e-01
   2.1972700e-01
   2.2460900e-01
   2.8808600e-01
   2.7832000e-01
   2.9296900e-01
   3.4668000e-01
   3.5156300e-01
   4.0039100e-01
   3.7109400e-01
   4.3457000e-01
   4.1992200e-01
   4.7851600e-01
   5.0781300e-01
   5.7128900e-01
   6.2500000e-01
   6.1035200e-01
   6.9335900e-01
   7.2265600e-01
   7.0800800e-01
   7.2753900e-01
   6.7871100e-01
   6.9335900e-01
   6.5918000e-01
   5.9570300e-01
   5.5664100e-01
   5.7128900e-01
   5.3710900e-01
   4.8339800e-01
   4.5898400e-01
   4.1992200e-01
   3.6621100e-01
   3.7597700e-01
   3.2714800e-01
   2.9296900e-01
   2.7343800e-01
   2.4902300e-01
   2.6367200e-01
   2.9296900e-01
   2.7832000e-01
   2.7343800e-01
   2.7832000e-01
   2.3437500e-01
   2.0996100e-01
   2.0507800e-01
   1.9531300e-01
   1.8554700e-01
   1.6601600e-01
   2.0507800e-01
   2.0019500e-01
   1.6113300e-01
   1.3671900e-01
