   3.3879200e-03
   5.6465300e-04
   1.6939600e-03
   3.3879200e-03
   4.5172200e-03
   3.5600000e-10
   5.0818800e-03
   2.8232600e-03
   5.6465300e-04
   1.1293100e-03
   2.8232600e-03
   1.1293100e-03
  -1.6939600e-03
   1.6939600e-03
   3.9525700e-03
   1.6939600e-03
   5.6465300e-04
   2.2586100e-03
   3.3879200e-03
  -1.1293100e-03
   5.6465300e-04
   2.8232600e-03
   5.0818800e-03
  -1.6939600e-03
   3.3879200e-03
   5.0818800e-03
  -2.2586100e-03
   2.8232600e-03
   3.9525700e-03
   3.9525700e-03
  -3.9525700e-03
   3.5600000e-10
   5.6465300e-04
   3.5600000e-10
  -5.6465200e-04
   1.6939600e-03
   2.2586100e-03
  -2.8232600e-03
   1.1293100e-03
   3.9525700e-03
   2.2586100e-03
  -5.6465200e-04
   2.2586100e-03
   3.3879200e-03
  -3.9525700e-03
  -5.6465200e-04
   3.3879200e-03
   2.2586100e-03
  -1.1293100e-03
   3.5600000e-10
   3.9525700e-03
  -1.1293100e-03
   1.1293100e-03
   1.1293100e-03
   2.2586100e-03
  -2.2586100e-03
  -5.6465200e-04
   3.5600000e-10
  -5.6465200e-04
   3.5600000e-10
   3.5600000e-10
   1.1293100e-03
  -2.8232600e-03
  -1.6939600e-03
   1.1293100e-03
   5.6465300e-04
  -2.2586100e-03
   3.5600000e-10
   2.2586100e-03
  -5.6465200e-04
   1.1293100e-03
   3.9525700e-03
   5.6465300e-04
  -2.8232600e-03
   3.5600000e-10
   2.2586100e-03
   1.1293100e-03
   1.1293100e-03
   5.6465300e-04
   5.6465300e-03
  -1.6939600e-03
   1.6939600e-03
   2.2586100e-03
   5.6465300e-04
   5.6465300e-04
   1.1293100e-03
   3.9525700e-03
   3.5600000e-10
   1.6939600e-03
   3.3879200e-03
   1.1293100e-03
  -1.1293100e-03
   1.1293100e-03
   2.2586100e-03
   5.6465300e-04
  -5.6465200e-04
   3.3879200e-03
   2.2586100e-03
  -1.6939600e-03
   1.6939600e-03
   2.8232600e-03
   3.5600000e-10
  -1.1293100e-03
   5.6465300e-04
   2.2586100e-03
  -3.3879200e-03
   3.5600000e-10
   1.6939600e-03
   3.5600000e-10
  -1.6939600e-03
   1.6939600e-03
   1.1293100e-03
  -4.5172200e-03
  -2.8232600e-03
  -5.6465200e-04
   2.8232600e-03
  -2.2586100e-03
   3.5600000e-10
   2.8232600e-03
  -1.1293100e-03
  -1.1293100e-03
   3.5600000e-10
   3.5600000e-10
  -1.1293100e-03
  -2.2586100e-03
   5.6465300e-04
   3.5600000e-10
  -1.6939600e-03
   2.8232600e-03
   1.6939600e-03
  -1.6939600e-03
   1.1293100e-03
   5.6465300e-04
   1.6939600e-03
  -2.8232600e-03
   2.2586100e-03
   1.1293100e-03
  -2.2586100e-03
   3.5600000e-10
  -1.1293100e-03
   1.1293100e-03
  -5.6465200e-04
   2.8232600e-03
   1.6939600e-03
  -1.1293100e-03
  -1.1293100e-03
   3.9525700e-03
   2.8232600e-03
  -3.9525700e-03
   5.6465300e-04
   2.8232600e-03
   1.1293100e-03
  -5.6465200e-04
   1.1293100e-03
   1.1293100e-03
  -1.6939600e-03
  -1.1293100e-03
   1.1293100e-03
   1.6939600e-03
  -2.8232600e-03
  -5.6465200e-04
   5.6465300e-03
  -1.1293100e-03
  -1.1293100e-03
   1.6939600e-03
   3.3879200e-03
  -2.2586100e-03
   3.5600000e-10
   1.1293100e-03
  -1.1293100e-03
  -2.8232600e-03
   5.6465300e-04
   3.3879200e-03
  -5.6465200e-04
  -1.6939600e-03
   3.5600000e-10
   1.1293100e-03
   3.5600000e-10
   1.6939600e-03
   2.2586100e-03
  -3.3879200e-03
   1.6939600e-03
   1.6939600e-03
   2.2586100e-03
  -1.1293100e-03
   2.2586100e-03
   1.6939600e-03
   1.1293100e-03
   1.1293100e-03
   2.2586100e-03
   3.3879200e-03
  -1.6939600e-03
   3.3879200e-03
   3.3879200e-03
   1.1293100e-03
  -1.6939600e-03
   2.2586100e-03
   2.2586100e-03
  -1.1293100e-03
   1.1293100e-03
   3.3879200e-03
   1.6939600e-03
  -1.1293100e-03
   2.8232600e-03
   3.3879200e-03
   5.6465300e-04
  -1.1293100e-03
   2.2586100e-03
   5.0818800e-03
  -2.2586100e-03
   1.6939600e-03
   5.0818800e-03
  -1.1293100e-03
   1.1293100e-03
   3.9525700e-03
   5.0818800e-03
   3.5600000e-10
   5.6465300e-04
   2.8232600e-03
   1.1293100e-03
  -1.1293100e-03
   3.9525700e-03
   4.5172200e-03
  -1.1293100e-03
   4.5172200e-03
   1.6939600e-03
   5.6465300e-04
   1.1293100e-03
   2.8232600e-03
   2.2586100e-03
   1.1293100e-03
   5.6465300e-04
   2.2586100e-03
   2.8232600e-03
  -5.6465200e-04
   1.1293100e-03
   2.2586100e-03
  -5.6465200e-04
   5.6465300e-04
   1.6939600e-03
   2.8232600e-03
   3.5600000e-10
   1.1293100e-03
   1.6939600e-03
   2.8232600e-03
   2.2586100e-03
   5.6465300e-04
   4.5172200e-03
  -2.2586100e-03
  -5.6465200e-04
   1.6939600e-03
   1.6939600e-03
  -2.2586100e-03
   1.1293100e-03
   1.6939600e-03
   5.6465300e-04
   1.6939600e-03
   3.3879200e-03
   3.3879200e-03
  -3.3879200e-03
   5.6465300e-04
   1.1293100e-03
   5.6465300e-04
  -1.1293100e-03
   3.3879200e-03
   2.8232600e-03
  -5.6465200e-04
   3.5600000e-10
   4.5172200e-03
   2.2586100e-03
  -1.1293100e-03
   1.1293100e-03
   3.3879200e-03
  -2.8232600e-03
   1.1293100e-03
   2.2586100e-03
   2.2586100e-03
  -1.1293100e-03
  -5.6465200e-04
   5.0818800e-03
   3.5600000e-10
   1.1293100e-03
   2.2586100e-03
   2.2586100e-03
  -1.6939600e-03
   3.5600000e-10
   2.2586100e-03
   1.1293100e-03
   3.5600000e-10
   1.6939600e-03
   2.8232600e-03
  -5.6465200e-04
   1.6939600e-03
   3.5600000e-10
   1.1293100e-03
   1.1293100e-03
   2.8232600e-03
   4.5172200e-03
  -2.8232600e-03
  -5.6465200e-04
   4.5172200e-03
   2.8232600e-03
  -1.6939600e-03
   2.8232600e-03
   3.9525700e-03
   5.6465300e-04
  -1.6939600e-03
   2.8232600e-03
   2.8232600e-03
  -5.0818700e-03
  -1.6939600e-03
   3.5600000e-10
   1.6939600e-03
  -3.3879200e-03
  -5.6465200e-04
   3.9525700e-03
  -1.6939600e-03
   3.5600000e-10
   2.2586100e-03
   1.1293100e-03
  -2.2586100e-03
   1.1293100e-03
   1.6939600e-03
   3.5600000e-10
   1.1293100e-03
   5.6465300e-04
   5.0818800e-03
  -4.5172200e-03
   3.3879200e-03
   1.6939600e-03
  -1.6939600e-03
   5.6465300e-04
   1.6939600e-03
   3.3879200e-03
  -1.6939600e-03
   5.6465300e-04
   4.5172200e-03
   2.2586100e-03
   3.5600000e-10
   2.8232600e-03
   2.2586100e-03
  -3.9525700e-03
   5.6465300e-04
   5.0818800e-03
   2.2586100e-03
  -1.6939600e-03
   3.3879200e-03
   1.1293100e-03
   5.6465300e-04
   1.6939600e-03
   2.2586100e-03
   4.5172200e-03
  -1.1293100e-03
   1.6939600e-03
   2.2586100e-03
   2.2586100e-03
  -5.6465200e-04
   2.2586100e-03
   5.6465300e-03
  -1.6939600e-03
   3.9525700e-03
   1.1293100e-03
   2.2586100e-03
  -5.6465200e-04
   5.0818800e-03
   3.9525700e-03
   5.6465300e-04
   3.5600000e-10
   2.2586100e-03
   3.3879200e-03
  -5.6465200e-04
   2.8232600e-03
   3.3879200e-03
   5.6465300e-04
   3.5600000e-10
   2.2586100e-03
   5.6465300e-03
  -1.1293100e-03
   3.5600000e-10
   3.9525700e-03
   1.6939600e-03
   1.6939600e-03
   3.9525700e-03
   3.3879200e-03
  -5.6465200e-04
   5.6465300e-04
   1.6939600e-03
   3.3879200e-03
  -1.1293100e-03
   2.8232600e-03
   3.9525700e-03
  -2.2586100e-03
   5.6465300e-04
   1.6939600e-03
   1.6939600e-03
  -3.3879200e-03
   2.2586100e-03
   1.6939600e-03
   1.6939600e-03
   5.6465300e-04
   3.9525700e-03
   5.0818800e-03
  -1.1293100e-03
   2.2586100e-03
   2.8232600e-03
   1.6939600e-03
  -1.1293100e-03
   3.3879200e-03
   2.2586100e-03
  -5.6465200e-04
   3.9525700e-03
   3.3879200e-03
   2.8232600e-03
   3.5600000e-10
   1.6939600e-03
   3.9525700e-03
   2.2586100e-03
   1.1293100e-03
   3.3879200e-03
   2.8232600e-03
   3.5600000e-10
   2.2586100e-03
   2.8232600e-03
   1.1293100e-03
   5.6465300e-04
   5.6465300e-04
   5.6465300e-03
  -5.6465200e-04
   3.5600000e-10
   2.8232600e-03
   1.6939600e-03
  -2.8232600e-03
   1.6939600e-03
   4.5172200e-03
  -1.1293100e-03
   1.1293100e-03
   3.9525700e-03
   4.5172200e-03
  -1.1293100e-03
   1.1293100e-03
   2.8232600e-03
  -1.1293100e-03
   2.8232600e-03
   6.2111800e-03
   1.6939600e-03
  -1.1293100e-03
   3.3879200e-03
   2.2586100e-03
   3.9525700e-03
  -5.6465200e-04
   2.8232600e-03
   3.3879200e-03
   5.6465300e-04
   1.6939600e-03
   5.0818800e-03
   2.2586100e-03
  -1.1293100e-03
   3.3879200e-03
   5.0818800e-03
  -1.1293100e-03
  -1.1293100e-03
   3.3879200e-03
   2.2586100e-03
   5.6465300e-04
   3.9525700e-03
   5.0818800e-03
   2.2586100e-03
   3.5600000e-10
   2.2586100e-03
   3.3879200e-03
  -5.6465200e-04
   1.6939600e-03
   2.8232600e-03
   2.2586100e-03
  -1.1293100e-03
  -1.1293100e-03
   2.2586100e-03
  -1.1293100e-03
   1.6939600e-03
   3.5600000e-10
   3.3879200e-03
  -2.8232600e-03
   1.1293100e-03
   5.6465300e-03
  -5.6465200e-04
   1.1293100e-03
   3.3879200e-03
   3.9525700e-03
  -1.1293100e-03
   5.6465300e-04
   2.8232600e-03
  -2.8232600e-03
  -5.6465200e-04
   4.5172200e-03
   1.6939600e-03
  -2.2586100e-03
   3.5600000e-10
   5.6465300e-04
  -5.6465200e-04
  -1.6939600e-03
  -5.6465200e-04
   1.6939600e-03
  -1.1293100e-03
  -1.1293100e-03
   3.3879200e-03
   1.1293100e-03
  -1.6939600e-03
   2.8232600e-03
   1.6939600e-03
  -1.1293100e-03
  -1.1293100e-03
   1.1293100e-03
   2.2586100e-03
  -3.3879200e-03
   2.8232600e-03
   5.6465300e-03
   1.1293100e-03
   1.6939600e-03
   1.6939600e-03
   3.3879200e-03
  -2.2586100e-03
   1.1293100e-03
   3.3879200e-03
   1.6939600e-03
   5.6465300e-04
   1.1293100e-03
   2.2586100e-03
  -2.8232600e-03
   2.8232600e-03
   2.8232600e-03
   3.3879200e-03
   5.6465300e-04
   2.2586100e-03
   5.6465300e-03
   3.5600000e-10
   3.5600000e-10
   2.2586100e-03
   4.5172200e-03
  -1.6939600e-03
   5.6465300e-04
   4.5172200e-03
   1.1293100e-03
  -1.1293100e-03
   3.3879200e-03
   1.6939600e-03
  -3.3879200e-03
   2.8232600e-03
   5.6465300e-04
   4.5172200e-03
  -1.6939600e-03
   2.2586100e-03
   5.6465300e-03
   5.6465300e-04
   5.6465300e-04
   3.3879200e-03
   4.5172200e-03
   5.6465300e-04
   2.8232600e-03
   5.0818800e-03
   1.1293100e-03
   4.5172200e-03
   2.2586100e-03
   6.2111800e-03
   2.2586100e-03
   4.5172200e-03
   5.0818800e-03
   3.9525700e-03
   3.5600000e-10
   5.0818800e-03
   5.0818800e-03
  -5.6465200e-04
   3.9525700e-03
   5.0818800e-03
   5.0818800e-03
   1.1293100e-03
   3.9525700e-03
   2.2586100e-03
   3.9525700e-03
   5.6465300e-04
   2.2586100e-03
   4.5172200e-03
   3.5600000e-10
   2.8232600e-03
   6.2111800e-03
   4.5172200e-03
   5.6465300e-04
   3.9525700e-03
   5.0818800e-03
  -5.6465200e-04
   3.9525700e-03
   5.0818800e-03
   2.2586100e-03
   1.1293100e-03
   2.8232600e-03
   4.5172200e-03
  -1.1293100e-03
  -5.6465200e-04
   1.1293100e-03
   3.9525700e-03
  -2.8232600e-03
   2.2586100e-03
   3.3879200e-03
  -5.6465200e-04
   2.2586100e-03
   5.0818800e-03
   5.6465300e-03
   1.1293100e-03
   3.9525700e-03
   4.5172200e-03
  -5.6465200e-04
  -1.1293100e-03
   3.9525700e-03
   5.0818800e-03
  -1.1293100e-03
   2.2586100e-03
   2.2586100e-03
   5.6465300e-03
   1.6939600e-03
   3.9525700e-03
   5.6465300e-03
  -5.6465200e-04
   2.2586100e-03
   5.0818800e-03
   3.3879200e-03
   3.5600000e-10
   2.2586100e-03
   2.8232600e-03
   1.6939600e-03
  -5.6465200e-04
   2.2586100e-03
   2.8232600e-03
  -1.6939600e-03
   2.8232600e-03
   4.5172200e-03
   3.9525700e-03
   2.2586100e-03
   4.5172200e-03
   6.2111800e-03
   1.1293100e-03
   1.6939600e-03
   5.6465300e-03
   5.0818800e-03
  -1.6939600e-03
   6.2111800e-03
   5.0818800e-03
   3.5600000e-10
   1.6939600e-03
   3.9525700e-03
   5.0818800e-03
   5.6465300e-04
   5.0818800e-03
   3.9525700e-03
   1.1293100e-03
   1.6939600e-03
   5.0818800e-03
   6.2111800e-03
   1.1293100e-03
   1.6939600e-03
   4.5172200e-03
   1.6939600e-03
  -5.6465200e-04
   2.8232600e-03
   3.9525700e-03
   5.6465300e-04
   5.6465300e-04
   4.5172200e-03
   5.6465300e-04
  -1.1293100e-03
   2.8232600e-03
   2.2586100e-03
   3.5600000e-10
   3.5600000e-10
   2.2586100e-03
   3.9525700e-03
  -1.6939600e-03
   1.6939600e-03
   2.2586100e-03
   1.6939600e-03
   3.5600000e-10
   2.2586100e-03
   3.9525700e-03
  -1.6939600e-03
   5.6465300e-04
   5.6465300e-04
   5.6465300e-04
   5.6465300e-04
   2.8232600e-03
   5.0818800e-03
  -2.2586100e-03
   5.6465300e-04
   2.8232600e-03
   2.8232600e-03
   3.5600000e-10
   3.3879200e-03
   5.0818800e-03
  -2.2586100e-03
   3.3879200e-03
   2.2586100e-03
   5.0818800e-03
  -5.6465200e-04
   1.6939600e-03
   3.3879200e-03
   2.2586100e-03
   3.5600000e-10
   4.5172200e-03
   5.0818800e-03
   3.5600000e-10
   2.2586100e-03
   5.0818800e-03
   3.9525700e-03
  -5.6465200e-04
   3.9525700e-03
   5.0818800e-03
   1.6939600e-03
   1.1293100e-03
   5.0818800e-03
   4.5172200e-03
  -1.1293100e-03
   2.2586100e-03
   4.5172200e-03
   2.2586100e-03
   1.6939600e-03
   3.9525700e-03
   6.2111800e-03
  -1.1293100e-03
   3.3879200e-03
   5.0818800e-03
   3.9525700e-03
   3.5600000e-10
   2.8232600e-03
   3.9525700e-03
   1.1293100e-03
   2.2586100e-03
   2.2586100e-03
   6.7758300e-03
   5.6465300e-04
   2.2586100e-03
   5.0818800e-03
  -5.6465200e-04
   1.6939600e-03
   2.2586100e-03
   3.3879200e-03
  -1.1293100e-03
   4.5172200e-03
   7.3404900e-03
   5.6465300e-04
   2.2586100e-03
   4.5172200e-03
   6.2111800e-03
  -1.1293100e-03
   1.6939600e-03
   2.2586100e-03
   3.3879200e-03
   5.6465300e-04
   3.3879200e-03
   4.5172200e-03
  -1.1293100e-03
   5.6465300e-04
   1.6939600e-03
   2.2586100e-03
  -1.1293100e-03
   3.9525700e-03
   4.5172200e-03
   1.1293100e-03
   1.6939600e-03
   5.6465300e-04
   1.6939600e-03
  -1.1293100e-03
   3.9525700e-03
   4.5172200e-03
   1.1293100e-03
   1.1293100e-03
   3.9525700e-03
   3.9525700e-03
  -1.1293100e-03
   3.9525700e-03
   4.5172200e-03
   3.9525700e-03
   2.2586100e-03
   3.3879200e-03
   4.5172200e-03
  -1.1293100e-03
   3.9525700e-03
   4.5172200e-03
   5.0818800e-03
   1.6939600e-03
   3.9525700e-03
   5.6465300e-03
   2.2586100e-03
   3.3879200e-03
   3.9525700e-03
   5.6465300e-03
   3.5600000e-10
   1.6939600e-03
   4.5172200e-03
   4.5172200e-03
   3.5600000e-10
   2.2586100e-03
   3.3879200e-03
   1.6939600e-03
   3.3879200e-03
   5.0818800e-03
   2.8232600e-03
   3.5600000e-10
   5.0818800e-03
   5.6465300e-03
   2.2586100e-03
   5.6465300e-04
   2.8232600e-03
   5.0818800e-03
  -2.2586100e-03
   1.6939600e-03
   3.3879200e-03
   2.2586100e-03
   3.9525700e-03
   5.0818800e-03
   4.5172200e-03
   5.6465300e-04
   3.3879200e-03
   5.0818800e-03
   2.2586100e-03
   1.1293100e-03
   2.2586100e-03
   3.9525700e-03
   5.6465300e-04
   2.8232600e-03
   2.2586100e-03
   3.9525700e-03
   1.6939600e-03
   2.8232600e-03
   1.6939600e-03
   1.1293100e-03
  -1.6939600e-03
   5.6465300e-04
   3.3879200e-03
   5.6465300e-04
   3.9525700e-03
   3.9525700e-03
   3.5600000e-10
   5.6465300e-04
   4.5172200e-03
   5.0818800e-03
  -5.6465200e-04
   4.5172200e-03
   7.3404900e-03
   3.3879200e-03
   5.6465300e-04
   2.2586100e-03
   2.2586100e-03
   3.5600000e-10
  -1.1293100e-03
   2.8232600e-03
   5.0818800e-03
  -2.2586100e-03
   1.6939600e-03
   4.5172200e-03
   1.1293100e-03
   3.5600000e-10
   3.3879200e-03
   3.9525700e-03
  -2.2586100e-03
   1.6939600e-03
   2.8232600e-03
   5.6465300e-04
   1.6939600e-03
   2.8232600e-03
   2.8232600e-03
  -1.6939600e-03
   1.1293100e-03
   3.9525700e-03
   2.2586100e-03
   3.5600000e-10
   3.9525700e-03
   6.2111800e-03
  -1.1293100e-03
   1.1293100e-03
   3.9525700e-03
   7.3404900e-03
   1.1293100e-03
   3.9525700e-03
   2.2586100e-03
  -5.6465200e-04
   5.6465300e-04
   5.0818800e-03
   2.8232600e-03
  -1.1293100e-03
   1.6939600e-03
   3.9525700e-03
   1.1293100e-03
   5.6465300e-04
   2.2586100e-03
   2.8232600e-03
  -5.6465200e-04
   2.8232600e-03
   2.8232600e-03
   3.3879200e-03
  -1.1293100e-03
   1.6939600e-03
   2.2586100e-03
  -5.6465200e-04
   1.6939600e-03
   1.6939600e-03
   4.5172200e-03
  -1.6939600e-03
   1.6939600e-03
   2.8232600e-03
   1.1293100e-03
   3.5600000e-10
   3.3879200e-03
   3.9525700e-03
  -1.1293100e-03
   3.9525700e-03
   3.3879200e-03
   2.8232600e-03
   1.1293100e-03
   5.6465300e-03
   3.9525700e-03
   5.6465300e-04
   4.5172200e-03
   3.9525700e-03
   4.5172200e-03
   5.6465300e-04
   2.2586100e-03
   4.5172200e-03
  -5.6465200e-04
   1.1293100e-03
   3.3879200e-03
   3.9525700e-03
   3.5600000e-10
   2.2586100e-03
   5.0818800e-03
   2.2586100e-03
  -5.6465200e-04
   3.3879200e-03
   6.7758300e-03
  -1.1293100e-03
   2.2586100e-03
   5.6465300e-03
   2.8232600e-03
   1.6939600e-03
   3.3879200e-03
   6.2111800e-03
   1.1293100e-03
   5.6465300e-04
   3.9525700e-03
   4.5172200e-03
  -2.8232600e-03
   1.6939600e-03
   4.5172200e-03
   1.1293100e-03
   2.2586100e-03
   3.9525700e-03
   3.9525700e-03
   5.6465300e-04
   5.6465300e-04
   3.9525700e-03
   1.1293100e-03
   5.6465300e-04
   2.2586100e-03
   2.8232600e-03
  -2.2586100e-03
   1.6939600e-03
   2.8232600e-03
   3.9525700e-03
  -5.6465200e-04
   1.1293100e-03
   2.8232600e-03
  -1.1293100e-03
   5.6465300e-04
   2.8232600e-03
   4.5172200e-03
  -5.6465200e-04
   2.2586100e-03
   3.9525700e-03
   3.5600000e-10
   1.1293100e-03
   3.3879200e-03
   3.3879200e-03
  -2.2586100e-03
   1.6939600e-03
   3.3879200e-03
   1.6939600e-03
  -1.1293100e-03
   4.5172200e-03
   1.6939600e-03
  -5.6465200e-04
   2.8232600e-03
   5.0818800e-03
   2.2586100e-03
   5.6465300e-04
   2.2586100e-03
   3.3879200e-03
   1.1293100e-03
   5.6465300e-04
   4.5172200e-03
   3.9525700e-03
   1.6939600e-03
   1.1293100e-03
   5.6465300e-03
   1.6939600e-03
   1.6939600e-03
   6.2111800e-03
   3.9525700e-03
  -1.1293100e-03
   2.2586100e-03
   3.9525700e-03
   4.5172200e-03
   1.6939600e-03
   3.3879200e-03
   3.3879200e-03
  -1.1293100e-03
   2.2586100e-03
   2.2586100e-03
   1.6939600e-03
   1.6939600e-03
   5.6465300e-03
   1.6939600e-03
   3.5600000e-10
   1.6939600e-03
   3.3879200e-03
   4.5172200e-03
   3.5600000e-10
   4.5172200e-03
   4.5172200e-03
   1.6939600e-03
   5.6465300e-04
   4.5172200e-03
   3.3879200e-03
  -1.6939600e-03
   3.5600000e-10
   3.3879200e-03
   2.2586100e-03
  -5.6465200e-04
   2.8232600e-03
   3.9525700e-03
   5.6465300e-04
   1.6939600e-03
   5.0818800e-03
   3.3879200e-03
  -5.6465200e-04
   2.8232600e-03
   3.9525700e-03
   5.6465300e-04
   2.8232600e-03
   4.5172200e-03
   6.2111800e-03
  -1.1293100e-03
   1.6939600e-03
   2.8232600e-03
   2.2586100e-03
   1.1293100e-03
   3.9525700e-03
   2.8232600e-03
   3.5600000e-10
   1.1293100e-03
   2.8232600e-03
   2.2586100e-03
  -5.6465200e-04
   2.2586100e-03
   5.0818800e-03
   1.1293100e-03
   5.6465300e-04
   5.0818800e-03
   3.9525700e-03
  -5.6465200e-04
   3.9525700e-03
   3.3879200e-03
   1.6939600e-03
   3.3879200e-03
   5.0818800e-03
   5.0818800e-03
   1.1293100e-03
   2.2586100e-03
   5.6465300e-03
   2.8232600e-03
   1.6939600e-03
   5.6465300e-03
   5.0818800e-03
   3.9525700e-03
   2.8232600e-03
   5.6465300e-03
   6.2111800e-03
   5.6465300e-03
   7.3404900e-03
   9.5991000e-03
   1.6939600e-03
   7.9051400e-03
   1.0728400e-02
   9.0344400e-03
   5.0818800e-03
   1.0163700e-02
   1.1293100e-02
   7.9051400e-03
   9.0344400e-03
   1.2422400e-02
   1.2987000e-02
   8.4697900e-03
   1.2987000e-02
   1.6939600e-02
   1.4681000e-02
   1.5245600e-02
   1.7504200e-02
   2.1456800e-02
   1.6374900e-02
   2.0327500e-02
   2.5409400e-02
   2.4844700e-02
   2.4280100e-02
   2.7668000e-02
   3.0491200e-02
   2.5974000e-02
   2.8232600e-02
   3.1055900e-02
   3.1620600e-02
   3.1055900e-02
   3.2185200e-02
   3.5008500e-02
   3.2185200e-02
   3.3314500e-02
   3.5008500e-02
   3.5008500e-02
   3.0491200e-02
   3.6137800e-02
   3.7831700e-02
   3.8396400e-02
   3.5573100e-02
   3.8396400e-02
   3.8396400e-02
   3.5573100e-02
   3.6702400e-02
   3.8961000e-02
   4.0655000e-02
   3.5573100e-02
   4.0090300e-02
   3.8961000e-02
   3.8396400e-02
   3.6702400e-02
   4.0090300e-02
   4.0090300e-02
   3.4443800e-02
   4.0090300e-02
   4.0655000e-02
   3.6702400e-02
   3.6137800e-02
   3.7831700e-02
   4.1219700e-02
   3.2185200e-02
   3.7831700e-02
   3.8961000e-02
   3.6702400e-02
   3.3879200e-02
   3.6702400e-02
   3.8396400e-02
   3.5008500e-02
   3.5573100e-02
   3.6702400e-02
   3.6702400e-02
   3.2185200e-02
   3.5573100e-02
   3.6137800e-02
   3.5008500e-02
   3.6137800e-02
   3.6702400e-02
   3.6702400e-02
   3.2185200e-02
   3.6137800e-02
   3.6702400e-02
   3.8961000e-02
   3.5008500e-02
   4.1219700e-02
   4.0655000e-02
   3.6137800e-02
   4.0090300e-02
   4.2913600e-02
   4.1219700e-02
   3.8961000e-02
   4.2913600e-02
   4.4042900e-02
   4.2349000e-02
   4.0090300e-02
   4.6866200e-02
   4.8560100e-02
   4.3478300e-02
   4.6866200e-02
   5.1383400e-02
   4.9124800e-02
   5.1948100e-02
   5.4206700e-02
   5.8159200e-02
   5.4206700e-02
   5.9853200e-02
   6.0417800e-02
   6.1547100e-02
   6.1547100e-02
   6.4935100e-02
   6.7193700e-02
   6.6629000e-02
   6.7193700e-02
   7.5663500e-02
   7.5663500e-02
   7.2840200e-02
   7.7922100e-02
   8.0180700e-02
   7.9616000e-02
   8.4697900e-02
   8.6391900e-02
   9.0344400e-02
   8.8650500e-02
   9.2038400e-02
   9.4861700e-02
   9.6555600e-02
   9.7684900e-02
   9.9943500e-02
   1.0389600e-01
   1.0107300e-01
   1.0389600e-01
   1.1010700e-01
   1.1236600e-01
   1.0954300e-01
   1.1293100e-01
   1.1857700e-01
   1.1575400e-01
   1.1914200e-01
   1.2365900e-01
   1.2422400e-01
   1.2196500e-01
   1.2704700e-01
   1.3043500e-01
   1.3043500e-01
   1.2817600e-01
   1.3269300e-01
   1.3608100e-01
   1.3269300e-01
   1.3438700e-01
   1.3834000e-01
   1.4116300e-01
   1.3777500e-01
   1.4172800e-01
   1.4172800e-01
   1.3890500e-01
   1.4342200e-01
   1.4568000e-01
   1.4681000e-01
   1.4342200e-01
   1.4737400e-01
   1.4850400e-01
   1.4568000e-01
   1.4681000e-01
   1.5245600e-01
   1.5528000e-01
   1.5019800e-01
   1.5132700e-01
   1.5471500e-01
   1.5415000e-01
   1.5358600e-01
   1.5753800e-01
   1.5810300e-01
   1.5358600e-01
   1.5753800e-01
   1.5923200e-01
   1.5866700e-01
   1.5753800e-01
   1.6092600e-01
   1.6262000e-01
   1.5753800e-01
   1.6205500e-01
   1.6657300e-01
   1.6544300e-01
   1.6487900e-01
   1.6826700e-01
   1.6939600e-01
   1.6883100e-01
   1.6996000e-01
   1.7165400e-01
   1.7278400e-01
   1.7109000e-01
   1.7560700e-01
   1.7899500e-01
   1.7730100e-01
   1.7560700e-01
   1.8238300e-01
   1.8294700e-01
   1.8181800e-01
   1.8520600e-01
   1.8915900e-01
   1.8633500e-01
   1.8577100e-01
   1.9085300e-01
   1.9254700e-01
   1.8972300e-01
   1.9254700e-01
   1.9537000e-01
   1.9875800e-01
   1.9480500e-01
   1.9932200e-01
   2.0158100e-01
   1.9988700e-01
   2.0101600e-01
   2.0440400e-01
   2.0948600e-01
   2.0271000e-01
   2.0779200e-01
   2.1061500e-01
   2.0892200e-01
   2.1118000e-01
   2.1287400e-01
   2.1682700e-01
   2.1118000e-01
   2.1569700e-01
   2.1908500e-01
   2.2134400e-01
   2.1795600e-01
   2.2303800e-01
   2.2699000e-01
   2.2190900e-01
   2.2416700e-01
   2.2812000e-01
   2.2981400e-01
   2.2529600e-01
   2.3037800e-01
   2.3207200e-01
   2.3320200e-01
   2.3150800e-01
   2.3489600e-01
   2.3771900e-01
   2.3433100e-01
   2.3771900e-01
   2.3997700e-01
   2.4110700e-01
   2.4054200e-01
   2.4336500e-01
   2.4505900e-01
   2.4280100e-01
   2.4562400e-01
   2.4788300e-01
   2.4901200e-01
   2.4788300e-01
   2.5070600e-01
   2.5183500e-01
   2.5070600e-01
   2.5183500e-01
   2.5465800e-01
   2.5635200e-01
   2.5183500e-01
   2.5578800e-01
   2.5804600e-01
   2.5748200e-01
   2.5861100e-01
   2.6369300e-01
   2.6482200e-01
   2.5974000e-01
   2.6312800e-01
   2.6538700e-01
   2.6538700e-01
   2.6369300e-01
   2.6933900e-01
   2.7103300e-01
   2.6651600e-01
   2.7159800e-01
   2.7272700e-01
   2.7668000e-01
   2.7272700e-01
   2.7498600e-01
   2.7950300e-01
   2.7611500e-01
   2.8063200e-01
   2.8232600e-01
   2.8797300e-01
   2.8232600e-01
   2.8797300e-01
   2.8966700e-01
   2.9023200e-01
   2.9305500e-01
   2.9813700e-01
   3.0096000e-01
   2.9926600e-01
   3.0434800e-01
   3.0604200e-01
   3.0886500e-01
   3.0660600e-01
   3.1564100e-01
   3.2015800e-01
   3.1789900e-01
   3.1902900e-01
   3.2411100e-01
   3.2806300e-01
   3.2693400e-01
   3.3258000e-01
   3.3596800e-01
   3.3540400e-01
   3.3879200e-01
   3.4500300e-01
   3.4782600e-01
   3.4387400e-01
   3.4895500e-01
   3.5290800e-01
   3.5403700e-01
   3.5686100e-01
   3.5968400e-01
   3.6307200e-01
   3.5968400e-01
   3.6420100e-01
   3.6928300e-01
   3.6984800e-01
   3.6815400e-01
   3.7323500e-01
   3.7380000e-01
   3.7154200e-01
   3.7605900e-01
   3.7831700e-01
   3.8114100e-01
   3.7888200e-01
   3.8227000e-01
   3.8678700e-01
   3.8509300e-01
   3.8791600e-01
   3.8791600e-01
   3.9412800e-01
   3.8848100e-01
   3.9186900e-01
   3.9864500e-01
   3.9695100e-01
   3.9356300e-01
   3.9864500e-01
   3.9977400e-01
   3.9695100e-01
   4.0090300e-01
   4.0485600e-01
   4.0316200e-01
   4.0316200e-01
   4.0711500e-01
   4.0655000e-01
   4.0824400e-01
   4.0598500e-01
   4.0880900e-01
   4.1219600e-01
   4.0824400e-01
   4.0993800e-01
   4.1445500e-01
   4.1106700e-01
   4.1614900e-01
   4.1784300e-01
   4.1784300e-01
   4.1445500e-01
   4.2010200e-01
   4.2066600e-01
   4.2236000e-01
   4.2236000e-01
   4.2631300e-01
   4.2857100e-01
   4.2518400e-01
   4.2970100e-01
   4.2913600e-01
   4.3478300e-01
   4.2970100e-01
   4.3308900e-01
   4.3478300e-01
   4.3308900e-01
   4.3534700e-01
   4.4042900e-01
   4.3930000e-01
   4.3986400e-01
   4.4212300e-01
   4.4325200e-01
   4.4551100e-01
   4.4494600e-01
   4.4889900e-01
   4.5115800e-01
   4.4833400e-01
   4.5115800e-01
   4.5454500e-01
   4.5736900e-01
   4.5736900e-01
   4.5962700e-01
   4.6358000e-01
   4.5849800e-01
   4.6245100e-01
   4.6583900e-01
   4.6753200e-01
   4.6527400e-01
   4.7035600e-01
   4.7317900e-01
   4.7261400e-01
   4.7317900e-01
   4.7656700e-01
   4.7769600e-01
   4.7317900e-01
   4.7939000e-01
   4.8164900e-01
   4.8334300e-01
   4.8334300e-01
   4.8447200e-01
   4.9011900e-01
   4.8898900e-01
   4.8955400e-01
   4.9124800e-01
   4.9294200e-01
   4.9068300e-01
   4.9689400e-01
   4.9802400e-01
   4.9802400e-01
   4.9858800e-01
   5.0423500e-01
   5.0536400e-01
   5.0254100e-01
   5.0592900e-01
   5.0705800e-01
   5.0592900e-01
   5.0762300e-01
   5.1270500e-01
   5.1270500e-01
   5.1157500e-01
   5.1552800e-01
   5.2117400e-01
   5.2230400e-01
   5.2004500e-01
   5.2399800e-01
   5.2512700e-01
   5.2061000e-01
   5.2569200e-01
   5.2851500e-01
   5.2964400e-01
   5.2738600e-01
   5.3190300e-01
   5.3359700e-01
   5.3303200e-01
   5.3642000e-01
   5.3867900e-01
   5.4150200e-01
   5.3698500e-01
   5.3980800e-01
   5.4827800e-01
   5.4319600e-01
   5.4376100e-01
   5.4601900e-01
   5.4827800e-01
   5.4545500e-01
   5.5053600e-01
   5.5053600e-01
   5.5448900e-01
   5.5223000e-01
   5.5279500e-01
   5.5844200e-01
   5.5448900e-01
   5.5674800e-01
   5.6182900e-01
   5.5957100e-01
   5.5900600e-01
   5.6295900e-01
   5.6578200e-01
   5.6352300e-01
   5.6182900e-01
   5.6352300e-01
   5.6804100e-01
   5.6691100e-01
   5.6804100e-01
   5.7142900e-01
   5.6973500e-01
   5.6917000e-01
   5.7481600e-01
   5.7538100e-01
   5.7086400e-01
   5.7651000e-01
   5.7651000e-01
   5.7764000e-01
   5.7820400e-01
   5.7933400e-01
   5.7989800e-01
   5.7820400e-01
   5.7876900e-01
   5.8441600e-01
   5.8498000e-01
   5.8102800e-01
   5.8498000e-01
   5.8498000e-01
   5.8328600e-01
   5.8498000e-01
   5.8667400e-01
   5.8949700e-01
   5.8498000e-01
   5.8780400e-01
   5.8893300e-01
   5.8893300e-01
   5.8893300e-01
   5.9175600e-01
   5.9514400e-01
   5.9006200e-01
   5.9401500e-01
   5.9570900e-01
   5.9740300e-01
   5.9740300e-01
   5.9740300e-01
   6.0022600e-01
   5.9853200e-01
   5.9740300e-01
   6.0248400e-01
   6.0530800e-01
   5.9966100e-01
   6.0417800e-01
   6.0982500e-01
   6.0587200e-01
   6.0530800e-01
   6.1039000e-01
   6.1151900e-01
   6.1095400e-01
   6.1490700e-01
   6.1434200e-01
   6.1547100e-01
   6.1264800e-01
   6.1434200e-01
   6.2168300e-01
   6.1603600e-01
   6.1829500e-01
   6.2450600e-01
   6.2394100e-01
   6.1998900e-01
   6.2450600e-01
   6.2789400e-01
   6.2281200e-01
   6.2620000e-01
   6.3071700e-01
   6.3297600e-01
   6.2902300e-01
   6.3354000e-01
   6.3297600e-01
   6.3636400e-01
   6.3241100e-01
   6.3636400e-01
   6.4144600e-01
   6.3636400e-01
   6.4088100e-01
   6.4483300e-01
   6.4539800e-01
   6.4370400e-01
   6.4765700e-01
   6.4878600e-01
   6.4822100e-01
   6.4878600e-01
   6.5499700e-01
   6.5443300e-01
   6.5273900e-01
   6.5386800e-01
   6.5443300e-01
   6.5782000e-01
   6.5669100e-01
   6.6064400e-01
   6.6346700e-01
   6.5782000e-01
   6.6233800e-01
   6.6346700e-01
   6.6177300e-01
   6.6233800e-01
   6.6967800e-01
   6.6629000e-01
   6.6572600e-01
   6.6911300e-01
   6.7080700e-01
   6.7588900e-01
   6.7137200e-01
   6.7532500e-01
   6.7588900e-01
   6.7476000e-01
   6.7645400e-01
   6.7701900e-01
   6.7984200e-01
   6.7532500e-01
   6.8097100e-01
   6.8097100e-01
   6.7984200e-01
   6.7984200e-01
   6.8435900e-01
   6.8548800e-01
   6.8040700e-01
   6.8379400e-01
   6.8548800e-01
   6.8492400e-01
   6.8492400e-01
   6.8492400e-01
   6.8774700e-01
   6.8492400e-01
   6.8944100e-01
   6.8661800e-01
   6.8718200e-01
   6.8887600e-01
   6.8661800e-01
   6.9113500e-01
   6.8661800e-01
   6.8944100e-01
   6.9113500e-01
   6.9170000e-01
   6.8548800e-01
   6.8944100e-01
   6.9282900e-01
   6.8944100e-01
   6.8831200e-01
   6.9508800e-01
   6.9339400e-01
   6.8831200e-01
   6.9282900e-01
   6.9452300e-01
   6.9678100e-01
   6.9282900e-01
   6.9452300e-01
   6.9508800e-01
   6.9170000e-01
   6.9508800e-01
   6.9791100e-01
   6.9847500e-01
   6.9508800e-01
   6.9621700e-01
   6.9904000e-01
   6.9621700e-01
   6.9678100e-01
   7.0129900e-01
   7.0299300e-01
   6.9621700e-01
   7.0073400e-01
   6.9960500e-01
   6.9847500e-01
   7.0129900e-01
   7.0355700e-01
   7.0412200e-01
   6.9904000e-01
   7.0355700e-01
   7.0468700e-01
   7.0412200e-01
   7.0299300e-01
   7.0525100e-01
   7.0694500e-01
   7.0412200e-01
   7.0581600e-01
   7.0525100e-01
   7.0863900e-01
   7.0355700e-01
   7.0751000e-01
   7.0751000e-01
   7.0638100e-01
   7.0468700e-01
   7.0751000e-01
   7.0976800e-01
   7.0525100e-01
   7.0638100e-01
   7.0807500e-01
   7.0581600e-01
   7.0468700e-01
   7.1033300e-01
   7.0863900e-01
   7.0525100e-01
   7.0694500e-01
   7.0581600e-01
   7.0807500e-01
   7.0638100e-01
   7.0976800e-01
   7.1033300e-01
   7.0694500e-01
   7.0807500e-01
   7.0863900e-01
   7.0863900e-01
   7.0412200e-01
   7.0638100e-01
   7.0976800e-01
   7.0581600e-01
   7.0638100e-01
   7.0920400e-01
   7.0807500e-01
   7.0242800e-01
   7.0412200e-01
   7.0412200e-01
   7.0412200e-01
   7.0073400e-01
   7.0242800e-01
   7.0412200e-01
   6.9904000e-01
   6.9960500e-01
   7.0129900e-01
   7.0129900e-01
   6.9678100e-01
   6.9565200e-01
   7.0016900e-01
   6.9282900e-01
   6.9508800e-01
   6.9282900e-01
   6.9395800e-01
   6.8492400e-01
   6.8887600e-01
   6.9113500e-01
   6.8661800e-01
   6.8492400e-01
   6.8492400e-01
   6.8435900e-01
   6.7984200e-01
   6.8097100e-01
   6.8266500e-01
   6.8040700e-01
   6.7588900e-01
   6.7645400e-01
   6.7588900e-01
   6.7193700e-01
   6.6911300e-01
   6.7080700e-01
   6.6798400e-01
   6.6233800e-01
   6.6346700e-01
   6.6233800e-01
   6.5895000e-01
   6.5669100e-01
   6.5895000e-01
   6.5725600e-01
   6.4935100e-01
   6.5160900e-01
   6.5048000e-01
   6.4878600e-01
   6.4483300e-01
   6.4426900e-01
   6.4426900e-01
   6.3467000e-01
   6.3749300e-01
   6.3862200e-01
   6.3297600e-01
   6.2845800e-01
   6.2789400e-01
   6.2450600e-01
   6.2168300e-01
   6.1942400e-01
   6.1829500e-01
   6.1547100e-01
   6.1039000e-01
   6.0869600e-01
   6.0982500e-01
   6.0192000e-01
   5.9796700e-01
   5.9683800e-01
   5.9570900e-01
   5.8723900e-01
   5.8498000e-01
   5.8385100e-01
   5.7876900e-01
   5.7425200e-01
   5.7199300e-01
   5.7029900e-01
   5.5900600e-01
   5.5674800e-01
   5.5674800e-01
   5.5053600e-01
   5.4206700e-01
   5.4319600e-01
   5.3754900e-01
   5.2851500e-01
   5.2851500e-01
   5.2117400e-01
   5.2004500e-01
   5.0705800e-01
   5.0592900e-01
   5.0141200e-01
   4.9237700e-01
   4.8786000e-01
   4.8447200e-01
   4.7882600e-01
   4.6696800e-01
   4.6640300e-01
   4.6245100e-01
   4.5285100e-01
   4.4381700e-01
   4.3760600e-01
   4.3421800e-01
   4.2236000e-01
   4.1502000e-01
   4.1163200e-01
   4.0485600e-01
   3.8961000e-01
   3.8791600e-01
   3.8114100e-01
   3.6758900e-01
   3.6024800e-01
   3.5573100e-01
   3.4726100e-01
   3.3483900e-01
   3.2919300e-01
   3.2128700e-01
   3.1225300e-01
   3.0096000e-01
   2.9531300e-01
   2.8458500e-01
   2.7159800e-01
   2.6482200e-01
   2.6030500e-01
   2.4788300e-01
   2.3658900e-01
   2.2755500e-01
   2.2077900e-01
   2.0779200e-01
   1.9875800e-01
   1.9480500e-01
   1.8294700e-01
   1.7221900e-01
   1.6487900e-01
   1.5584400e-01
   1.4511600e-01
   1.3438700e-01
   1.2761200e-01
   1.2027100e-01
   1.0615500e-01
   1.0276700e-01
   9.7684900e-02
   9.2603000e-02
   8.4697900e-02
   7.9616000e-02
   7.7922100e-02
   7.2840200e-02
   6.8887600e-02
   6.8323000e-02
   6.9452300e-02
   5.8159200e-02
   6.2111800e-02
   6.3805800e-02
   5.3077400e-02
   5.5900600e-02
   5.3077400e-02
   4.7430800e-02
   4.4607600e-02
   4.1219700e-02
   4.0090300e-02
   4.0655000e-02
   3.5573100e-02
   3.4443800e-02
   3.6702400e-02
   3.0491200e-02
   2.9926600e-02
   3.2185200e-02
   2.9361900e-02
   2.4280100e-02
   2.6538700e-02
   2.5409400e-02
   2.2021500e-02
   2.3715400e-02
   2.0892200e-02
   2.0327500e-02
   1.6939600e-02
   1.9762800e-02
   1.8633500e-02
   1.6939600e-02
   1.5810300e-02
   1.7504200e-02
   1.6939600e-02
   1.0163700e-02
   1.4116300e-02
   1.5810300e-02
   1.5245600e-02
   1.1293100e-02
   1.1293100e-02
   1.5245600e-02
   6.2111800e-03
   1.0728400e-02
   1.1857700e-02
   8.4697900e-03
   5.6465300e-03
   1.0163700e-02
   1.0728400e-02
   6.2111800e-03
   7.3404900e-03
   7.3404900e-03
   1.0728400e-02
   5.6465300e-03
   4.5172200e-03
   1.1857700e-02
   6.7758300e-03
   3.3879200e-03
   7.9051400e-03
   8.4697900e-03
   2.2586100e-03
   7.3404900e-03
   6.2111800e-03
   5.0818800e-03
   3.9525700e-03
   3.9525700e-03
   7.9051400e-03
   2.2586100e-03
   2.8232600e-03
   6.7758300e-03
   7.9051400e-03
  -5.6465200e-04
   3.9525700e-03
   6.2111800e-03
   1.6939600e-03
   4.5172200e-03
   7.3404900e-03
   7.3404900e-03
  -1.6939600e-03
   4.5172200e-03
   4.5172200e-03
   5.6465300e-04
   1.1293100e-03
   3.9525700e-03
   3.3879200e-03
   3.5600000e-10
   1.6939600e-03
   1.6939600e-03
   5.6465300e-03
   2.2586100e-03
   1.6939600e-03
   4.5172200e-03
   2.8232600e-03
   1.6939600e-03
   2.8232600e-03
   3.9525700e-03
  -1.1293100e-03
   4.5172200e-03
   6.2111800e-03
   3.5600000e-10
  -5.6465200e-04
   6.2111800e-03
   2.8232600e-03
  -2.8232600e-03
   3.9525700e-03
   4.5172200e-03
   5.6465300e-04
   2.2586100e-03
   5.0818800e-03
   1.1293100e-03
   2.2586100e-03
   2.8232600e-03
   1.6939600e-03
   2.8232600e-03
   2.2586100e-03
  -1.1293100e-03
   7.9051400e-03
   5.6465300e-04
  -5.6465200e-04
   5.0818800e-03
   3.9525700e-03
  -1.6939600e-03
   5.0818800e-03
   4.5172200e-03
   1.1293100e-03
   3.3879200e-03
   3.3879200e-03
   1.6939600e-03
   1.1293100e-03
   1.6939600e-03
   4.5172200e-03
   3.5600000e-10
   5.6465300e-04
   2.2586100e-03
   5.0818800e-03
   3.5600000e-10
   1.1293100e-03
   2.8232600e-03
   1.1293100e-03
   1.6939600e-03
   2.2586100e-03
   5.6465300e-03
   5.6465300e-04
   3.9525700e-03
   2.2586100e-03
   3.3879200e-03
  -1.1293100e-03
   3.5600000e-10
   6.2111800e-03
   1.1293100e-03
  -1.1293100e-03
   2.2586100e-03
   5.0818800e-03
  -1.1293100e-03
   3.9525700e-03
   4.5172200e-03
   2.2586100e-03
   1.1293100e-03
   1.1293100e-03
   1.6939600e-03
   1.6939600e-03
  -1.1293100e-03
   2.8232600e-03
   3.3879200e-03
  -1.1293100e-03
   2.2586100e-03
   3.3879200e-03
   5.6465300e-04
   1.6939600e-03
   3.3879200e-03
   3.3879200e-03
  -1.1293100e-03
   3.9525700e-03
   4.5172200e-03
   1.6939600e-03
   5.6465300e-04
   2.2586100e-03
   1.6939600e-03
  -1.6939600e-03
   2.8232600e-03
   5.6465300e-04
   3.3879200e-03
   1.1293100e-03
   2.8232600e-03
   3.3879200e-03
  -5.6465200e-04
   1.6939600e-03
   2.2586100e-03
   2.8232600e-03
  -1.1293100e-03
   1.1293100e-03
   2.8232600e-03
   1.1293100e-03
   1.6939600e-03
   3.9525700e-03
   3.9525700e-03
  -1.1293100e-03
   2.8232600e-03
   3.9525700e-03
   1.1293100e-03
   3.5600000e-10
   1.6939600e-03
   2.8232600e-03
  -1.6939600e-03
   5.6465300e-04
   5.0818800e-03
   2.8232600e-03
  -5.6465200e-04
   3.3879200e-03
   3.9525700e-03
   3.5600000e-10
   3.3879200e-03
   3.9525700e-03
   6.2111800e-03
   3.5600000e-10
   3.3879200e-03
   2.8232600e-03
   5.6465300e-04
  -5.6465200e-04
   2.2586100e-03
   3.3879200e-03
  -2.2586100e-03
   2.2586100e-03
   6.2111800e-03
   1.6939600e-03
  -5.6465200e-04
   5.6465300e-03
   3.9525700e-03
   5.6465300e-04
   2.2586100e-03
   5.0818800e-03
   2.8232600e-03
  -2.2586100e-03
   1.6939600e-03
   6.2111800e-03
  -5.6465200e-04
   1.6939600e-03
   3.9525700e-03
   6.7758300e-03
  -5.6465200e-04
   2.8232600e-03
   3.3879200e-03
   5.6465300e-04
   2.8232600e-03
   3.9525700e-03
   5.0818800e-03
   5.6465300e-04
   6.2111800e-03
   3.9525700e-03
   5.6465300e-04
  -5.6465200e-04
   2.2586100e-03
   3.3879200e-03
  -2.2586100e-03
   3.5600000e-10
   2.2586100e-03
   3.9525700e-03
  -5.6465200e-04
   2.8232600e-03
   3.3879200e-03
  -1.1293100e-03
   1.6939600e-03
   1.1293100e-03
   3.9525700e-03
  -1.6939600e-03
   1.6939600e-03
   3.3879200e-03
   2.2586100e-03
   5.6465300e-04
   3.3879200e-03
   3.3879200e-03
  -1.6939600e-03
   5.6465300e-04
   1.6939600e-03
   1.1293100e-03
   3.5600000e-10
   1.1293100e-03
   1.6939600e-03
  -1.6939600e-03
   3.5600000e-10
   5.6465300e-04
   2.2586100e-03
  -2.8232600e-03
   1.1293100e-03
   1.6939600e-03
  -1.6939600e-03
   5.6465300e-04
   3.3879200e-03
   3.9525700e-03
  -2.8232600e-03
   3.3879200e-03
   1.6939600e-03
  -2.2586100e-03
   3.5600000e-10
   1.1293100e-03
   1.1293100e-03
  -3.9525700e-03
  -1.1293100e-03
   2.2586100e-03
   5.6465300e-04
  -1.6939600e-03
   2.2586100e-03
   1.6939600e-03
  -2.8232600e-03
   5.6465300e-04
   1.6939600e-03
   3.9525700e-03
  -1.1293100e-03
   5.6465300e-04
   2.8232600e-03
   5.6465300e-04
   3.5600000e-10
   1.6939600e-03
   3.9525700e-03
  -3.3879200e-03
   1.6939600e-03
   1.6939600e-03
  -5.6465200e-04
  -2.8232600e-03
   3.3879200e-03
   6.2111800e-03
   1.1293100e-03
   1.1293100e-03
   4.5172200e-03
   3.9525700e-03
  -2.8232600e-03
   2.8232600e-03
   3.9525700e-03
  -1.6939600e-03
   2.2586100e-03
   5.6465300e-03
   2.8232600e-03
   5.6465300e-04
   3.9525700e-03
   3.3879200e-03
   1.6939600e-03
   1.1293100e-03
   2.8232600e-03
   5.0818800e-03
  -5.6465200e-04
   4.5172200e-03
   3.9525700e-03
   2.8232600e-03
   1.1293100e-03
   3.3879200e-03
   4.5172200e-03
   3.5600000e-10
   2.2586100e-03
   6.7758300e-03
   1.6939600e-03
  -5.6465200e-04
   3.9525700e-03
   4.5172200e-03
   1.1293100e-03
   3.5600000e-10
   2.8232600e-03
   2.8232600e-03
   5.6465300e-04
   2.2586100e-03
   3.3879200e-03
   3.5600000e-10
  -5.6465200e-04
   3.5600000e-10
   5.0818800e-03
  -2.8232600e-03
   1.6939600e-03
   2.8232600e-03
   1.1293100e-03
  -2.2586100e-03
   2.8232600e-03
   2.8232600e-03
  -1.1293100e-03
   3.5600000e-10
   4.5172200e-03
   2.2586100e-03
  -1.6939600e-03
   1.6939600e-03
   6.2111800e-03
   5.6465300e-04
   5.6465300e-04
   1.1293100e-03
   2.2586100e-03
  -5.6465200e-04
   2.2586100e-03
   5.6465300e-03
   2.2586100e-03
   5.6465300e-04
   2.2586100e-03
   6.2111800e-03
  -5.6465200e-04
   3.3879200e-03
   4.5172200e-03
   2.8232600e-03
   5.6465300e-04
   5.6465300e-04
   2.2586100e-03
  -5.6465200e-04
   3.3879200e-03
   5.6465300e-04
   3.9525700e-03
  -2.8232600e-03
   4.5172200e-03
   2.8232600e-03
  -5.6465200e-04
   5.6465300e-04
   5.0818800e-03
   5.6465300e-03
   3.5600000e-10
   1.6939600e-03
   3.9525700e-03
   3.3879200e-03
   1.6939600e-03
   3.3879200e-03
   5.0818800e-03
   3.5600000e-10
   2.2586100e-03
   2.8232600e-03
   5.6465300e-03
   3.5600000e-10
   1.1293100e-03
   2.8232600e-03
  -2.2586100e-03
  -1.1293100e-03
   3.3879200e-03
   2.8232600e-03
  -1.6939600e-03
   5.6465300e-04
   5.0818800e-03
   1.6939600e-03
   3.5600000e-10
   2.2586100e-03
   4.5172200e-03
  -1.1293100e-03
   2.2586100e-03
   3.3879200e-03
   2.2586100e-03
   3.5600000e-10
   2.2586100e-03
   6.2111800e-03
  -1.1293100e-03
   3.9525700e-03
   5.0818800e-03
   2.8232600e-03
   5.6465300e-04
   4.5172200e-03
   3.9525700e-03
   2.2586100e-03
   3.3879200e-03
   4.5172200e-03
   2.8232600e-03
  -2.2586100e-03
   5.6465300e-04
   3.3879200e-03
   5.6465300e-04
   3.5600000e-10
   4.5172200e-03
   6.2111800e-03
  -5.6465200e-04
   3.3879200e-03
   3.3879200e-03
   3.3879200e-03
  -1.1293100e-03
   5.6465300e-03
   5.0818800e-03
  -2.2586100e-03
   5.6465300e-04
   5.0818800e-03
   3.3879200e-03
   1.1293100e-03
   2.2586100e-03
   2.8232600e-03
   2.2586100e-03
   5.6465300e-04
   3.9525700e-03
   5.0818800e-03
  -5.6465200e-04
   5.0818800e-03
   3.3879200e-03
   1.1293100e-03
  -5.6465200e-04
   1.1293100e-03
   2.2586100e-03
   1.1293100e-03
   1.6939600e-03
   1.6939600e-03
   3.3879200e-03
   3.5600000e-10
   2.2586100e-03
   4.5172200e-03
  -1.1293100e-03
   3.5600000e-10
   1.6939600e-03
   3.9525700e-03
  -1.6939600e-03
   3.3879200e-03
   6.2111800e-03
   1.6939600e-03
  -1.6939600e-03
   2.2586100e-03
   3.9525700e-03
  -3.9525700e-03
   1.1293100e-03
   2.8232600e-03
   5.6465300e-04
   1.1293100e-03
   3.9525700e-03
   2.8232600e-03
   3.5600000e-10
   3.5600000e-10
   1.6939600e-03
   5.6465300e-04
   5.6465300e-04
   4.5172200e-03
   3.3879200e-03
  -1.1293100e-03
   2.2586100e-03
   1.1293100e-03
   2.2586100e-03
  -5.6465200e-04
   1.1293100e-03
   3.9525700e-03
   3.5600000e-10
   3.5600000e-10
   2.2586100e-03
   2.8232600e-03
  -1.6939600e-03
   2.8232600e-03
   2.8232600e-03
   2.8232600e-03
   5.6465300e-04
   1.1293100e-03
   5.6465300e-03
   1.6939600e-03
   2.8232600e-03
   3.3879200e-03
   2.8232600e-03
   1.1293100e-03
   1.1293100e-03
   4.5172200e-03
   5.6465300e-04
   1.1293100e-03
   2.8232600e-03
   3.3879200e-03
  -2.8232600e-03
   2.2586100e-03
   3.3879200e-03
   5.6465300e-04
   2.2586100e-03
   5.6465300e-03
   6.7758300e-03
  -2.2586100e-03
   2.8232600e-03
   5.0818800e-03
   1.6939600e-03
   1.1293100e-03
   2.2586100e-03
   3.9525700e-03
  -1.1293100e-03
   2.2586100e-03
   4.5172200e-03
   5.6465300e-04
   3.5600000e-10
   1.6939600e-03
   1.6939600e-03
   2.2586100e-03
  -1.6939600e-03
   2.8232600e-03
   4.5172200e-03
  -1.1293100e-03
   1.1293100e-03
   3.9525700e-03
   5.6465300e-04
  -5.6465200e-04
   2.8232600e-03
   3.3879200e-03
  -5.6465200e-04
   1.1293100e-03
   1.1293100e-03
   2.2586100e-03
  -5.6465200e-04
   2.8232600e-03
   1.1293100e-03
  -2.2586100e-03
   2.8232600e-03
   5.0818800e-03
   1.1293100e-03
  -2.8232600e-03
   1.1293100e-03
   3.3879200e-03
  -1.6939600e-03
   1.1293100e-03
   3.3879200e-03
   3.3879200e-03
  -5.6465200e-04
   3.5600000e-10
   3.5600000e-10
   1.6939600e-03
  -2.2586100e-03
   2.8232600e-03
   3.9525700e-03
  -5.6465200e-04
  -5.6465200e-04
   2.8232600e-03
   4.5172200e-03
   3.5600000e-10
   3.3879200e-03
   2.8232600e-03
  -1.1293100e-03
   1.6939600e-03
   4.5172200e-03
   2.8232600e-03
  -1.1293100e-03
   2.8232600e-03
   3.9525700e-03
   1.6939600e-03
   3.3879200e-03
   1.1293100e-03
   5.0818800e-03
   5.6465300e-04
   3.9525700e-03
   5.0818800e-03
   2.2586100e-03
   1.6939600e-03
   2.8232600e-03
   5.6465300e-03
   1.1293100e-03
   2.8232600e-03
   5.0818800e-03
   1.6939600e-03
   3.5600000e-10
   5.6465300e-03
   3.3879200e-03
   5.6465300e-04
  -5.6465200e-04
   4.5172200e-03
   5.0818800e-03
  -1.1293100e-03
   2.2586100e-03
   4.5172200e-03
   5.6465300e-04
   3.5600000e-10
   2.8232600e-03
   2.8232600e-03
  -1.1293100e-03
   1.6939600e-03
   2.2586100e-03
   1.1293100e-03
   1.1293100e-03
   2.8232600e-03
   2.2586100e-03
  -1.6939600e-03
   1.6939600e-03
   2.2586100e-03
   1.6939600e-03
  -5.6465200e-04
   1.1293100e-03
   2.8232600e-03
   5.6465300e-04
  -1.6939600e-03
   1.6939600e-03
   2.2586100e-03
  -2.8232600e-03
   3.5600000e-10
   3.3879200e-03
   1.1293100e-03
   2.8232600e-03
   1.6939600e-03
   5.0818800e-03
  -5.6465200e-04
   1.1293100e-03
   4.5172200e-03
   5.6465300e-04
   5.6465300e-04
   3.3879200e-03
   3.3879200e-03
  -1.1293100e-03
   2.2586100e-03
   3.9525700e-03
   3.3879200e-03
  -5.6465200e-04
   3.3879200e-03
   1.6939600e-03
   1.6939600e-03
   3.5600000e-10
   1.1293100e-03
   4.5172200e-03
  -2.8232600e-03
   1.6939600e-03
   3.3879200e-03
   1.1293100e-03
   3.5600000e-10
   1.6939600e-03
   2.8232600e-03
   5.6465300e-04
   5.6465300e-04
   5.6465300e-03
   1.6939600e-03
   2.2586100e-03
   2.2586100e-03
   2.2586100e-03
   3.5600000e-10
   3.9525700e-03
   3.9525700e-03
   3.9525700e-03
  -1.6939600e-03
   1.6939600e-03
   3.3879200e-03
   1.6939600e-03
  -5.6465200e-04
   1.1293100e-03
   2.2586100e-03
  -2.8232600e-03
   2.2586100e-03
   3.3879200e-03
   1.1293100e-03
  -5.6465200e-04
   1.1293100e-03
   3.3879200e-03
  -1.1293100e-03
   2.2586100e-03
   2.2586100e-03
   3.3879200e-03
  -2.2586100e-03
   1.1293100e-03
   2.2586100e-03
  -5.6465200e-04
   3.5600000e-10
   2.2586100e-03
   6.2111800e-03
  -1.1293100e-03
   3.9525700e-03
   1.6939600e-03
   5.6465300e-04
  -2.2586100e-03
   5.6465300e-04
   4.5172200e-03
   1.1293100e-03
   3.3879200e-03
   1.6939600e-03
   1.6939600e-03
  -1.6939600e-03
   1.1293100e-03
   3.3879200e-03
  -1.6939600e-03
  -5.6465200e-04
   3.5600000e-10
   1.1293100e-03
  -2.8232600e-03
   3.5600000e-10
   1.1293100e-03
  -2.2586100e-03
  -5.6465200e-04
   2.8232600e-03
   2.8232600e-03
  -1.6939600e-03
  -5.6465200e-04
   1.1293100e-03
   3.5600000e-10
  -1.1293100e-03
   5.6465300e-04
   3.9525700e-03
   1.1293100e-03
   1.6939600e-03
   1.6939600e-03
   1.6939600e-03
   3.5600000e-10
   2.2586100e-03
   3.3879200e-03
   5.6465300e-04
   5.6465300e-04
   2.2586100e-03
   1.6939600e-03
  -2.2586100e-03
   5.6465300e-04
   3.9525700e-03
  -5.6465200e-04
   1.1293100e-03
   1.6939600e-03
   5.0818800e-03
  -3.3879200e-03
   3.5600000e-10
   1.6939600e-03
   1.6939600e-03
  -1.6939600e-03
  -1.1293100e-03
  -5.6465200e-04
  -3.3879200e-03
   5.6465300e-04
   1.6939600e-03
   1.6939600e-03
  -2.2586100e-03
   5.6465300e-04
   2.8232600e-03
  -1.1293100e-03
   3.5600000e-10
   5.6465300e-04
   1.6939600e-03
  -2.2586100e-03
   1.6939600e-03
   5.6465300e-04
  -5.6465200e-04
  -1.6939600e-03
   3.9525700e-03
   1.6939600e-03
  -2.8232600e-03
   3.5600000e-10
   2.2586100e-03
   2.2586100e-03
  -2.2586100e-03
   2.2586100e-03
   3.3879200e-03
  -3.3879200e-03
   2.2586100e-03
  -5.6465200e-04
   1.6939600e-03
   1.1293100e-03
  -1.1293100e-03
   2.8232600e-03
   3.5600000e-10
   3.5600000e-10
   1.6939600e-03
   2.2586100e-03
  -1.6939600e-03
   1.1293100e-03
   2.2586100e-03
   1.6939600e-03
  -1.6939600e-03
   1.6939600e-03
   3.5600000e-10
  -2.8232600e-03
  -5.6465200e-04
   4.5172200e-03
   3.5600000e-10
  -2.8232600e-03
   2.2586100e-03
   1.6939600e-03
  -5.6465200e-04
  -5.6465200e-04
   2.2586100e-03
   1.1293100e-03
  -2.8232600e-03
   3.5600000e-10
   1.1293100e-03
  -1.1293100e-03
  -5.6465200e-04
  -1.1293100e-03
   1.6939600e-03
  -1.6939600e-03
   5.6465300e-04
   2.2586100e-03
  -5.6465200e-04
  -3.3879200e-03
   2.2586100e-03
   1.6939600e-03
  -2.8232600e-03
  -5.6465200e-04
   2.2586100e-03
   1.1293100e-03
  -1.1293100e-03
   2.2586100e-03
   1.6939600e-03
  -5.6465200e-04
   5.6465300e-04
   3.5600000e-10
   3.3879200e-03
  -5.6465200e-04
   5.6465300e-04
   2.2586100e-03
   1.1293100e-03
   3.5600000e-10
   2.2586100e-03
   3.9525700e-03
  -3.3879200e-03
   5.6465300e-04
   2.2586100e-03
   5.6465300e-04
  -5.6465200e-04
   2.8232600e-03
   2.8232600e-03
  -2.2586100e-03
   1.1293100e-03
   1.6939600e-03
  -5.6465200e-04
  -3.3879200e-03
   5.6465300e-04
   1.6939600e-03
   3.5600000e-10
  -1.1293100e-03
   1.1293100e-03
   5.0818800e-03
  -5.6465200e-04
   3.9525700e-03
   5.6465300e-03
   1.6939600e-03
  -1.1293100e-03
   2.2586100e-03
   1.6939600e-03
  -1.1293100e-03
   2.8232600e-03
   5.0818800e-03
   3.9525700e-03
  -2.8232600e-03
   1.6939600e-03
   1.6939600e-03
  -1.1293100e-03
   1.1293100e-03
   3.3879200e-03
   1.6939600e-03
  -2.2586100e-03
   5.6465300e-04
   1.6939600e-03
   3.5600000e-10
  -5.6465200e-04
   1.1293100e-03
   2.2586100e-03
  -2.2586100e-03
   3.5600000e-10
   2.8232600e-03
   3.5600000e-10
  -5.6465200e-04
   1.1293100e-03
   2.2586100e-03
  -2.8232600e-03
   1.6939600e-03
   3.3879200e-03
   3.3879200e-03
  -2.2586100e-03
   1.6939600e-03
   3.9525700e-03
  -3.3879200e-03
  -1.6939600e-03
   5.6465300e-04
   2.2586100e-03
   1.1293100e-03
   3.5600000e-10
   1.6939600e-03
  -1.6939600e-03
   3.5600000e-10
   5.0818800e-03
   2.2586100e-03
  -1.6939600e-03
   1.6939600e-03
   2.8232600e-03
   5.6465300e-04
  -5.6465200e-04
   2.8232600e-03
   1.6939600e-03
   1.6939600e-03
   1.6939600e-03
   2.2586100e-03
   6.2111800e-03
   1.6939600e-03
   1.1293100e-03
   5.6465300e-04
  -5.6465200e-04
  -1.1293100e-03
   1.6939600e-03
   4.5172200e-03
   3.5600000e-10
   2.8232600e-03
   4.5172200e-03
   3.5600000e-10
  -5.6465200e-04
   3.9525700e-03
   5.6465300e-03
   1.1293100e-03
   1.6939600e-03
   5.6465300e-04
  -5.6465200e-04
  -3.9525700e-03
   5.6465300e-04
   2.8232600e-03
  -2.8232600e-03
   3.5600000e-10
   5.6465300e-04
   2.2586100e-03
  -1.1293100e-03
   2.8232600e-03
   2.2586100e-03
  -1.6939600e-03
   2.8232600e-03
   1.6939600e-03
   3.3879200e-03
  -3.3879200e-03
   2.8232600e-03
   3.9525700e-03
  -5.6465200e-04
   3.5600000e-10
   1.1293100e-03
   2.8232600e-03
  -2.8232600e-03
   3.5600000e-10
   2.2586100e-03
   3.5600000e-10
  -1.1293100e-03
   1.6939600e-03
   1.6939600e-03
  -3.3879200e-03
   2.2586100e-03
   2.2586100e-03
   1.1293100e-03
  -2.8232600e-03
   3.5600000e-10
  -1.1293100e-03
  -5.6465200e-04
   3.5600000e-10
   1.6939600e-03
   1.6939600e-03
  -2.2586100e-03
   1.6939600e-03
   1.6939600e-03
   5.6465300e-04
  -1.6939600e-03
   1.6939600e-03
   3.3879200e-03
  -1.1293100e-03
   1.6939600e-03
   4.5172200e-03
   2.2586100e-03
  -5.6465200e-04
   3.5600000e-10
   4.5172200e-03
  -5.6465200e-04
   3.5600000e-10
   2.8232600e-03
   2.8232600e-03
  -5.6465200e-04
   1.1293100e-03
   1.6939600e-03
  -5.6465200e-04
  -5.6465200e-04
   2.8232600e-03
   4.5172200e-03
  -1.1293100e-03
   3.5600000e-10
   3.3879200e-03
   3.3879200e-03
   5.6465300e-04
   2.8232600e-03
   3.3879200e-03
  -2.2586100e-03
   1.6939600e-03
   2.8232600e-03
   2.2586100e-03
  -5.6465200e-04
   3.9525700e-03
   5.0818800e-03
   1.6939600e-03
  -1.1293100e-03
   1.1293100e-03
   1.6939600e-03
  -1.1293100e-03
   1.1293100e-03
   3.5600000e-10
  -5.6465200e-04
  -5.6465200e-04
   1.6939600e-03
   2.2586100e-03
  -1.1293100e-03
   5.6465300e-04
   1.1293100e-03
   3.5600000e-10
  -1.6939600e-03
   1.1293100e-03
   3.5600000e-10
  -2.2586100e-03
   1.6939600e-03
  -1.1293100e-03
   1.1293100e-03
   3.5600000e-10
   2.2586100e-03
   3.3879200e-03
  -2.2586100e-03
  -1.1293100e-03
   1.1293100e-03
   2.2586100e-03
  -2.2586100e-03
   2.8232600e-03
   1.1293100e-03
  -5.6465200e-04
  -5.6465200e-04
  -5.6465200e-04
   2.8232600e-03
  -3.3879200e-03
   5.6465300e-04
  -5.6465200e-04
   3.5600000e-10
  -2.2586100e-03
   1.1293100e-03
  -1.1293100e-03
  -3.3879200e-03
  -5.6465200e-04
  -1.1293100e-03
   3.5600000e-10
  -3.3879200e-03
   3.5600000e-10
   2.2586100e-03
  -1.1293100e-03
  -2.8232600e-03
   3.3879200e-03
   1.1293100e-03
  -5.6465300e-03
  -3.3879200e-03
  -1.1293100e-03
  -2.2586100e-03
  -1.6939600e-03
   1.1293100e-03
   5.6465300e-04
  -3.3879200e-03
   3.5600000e-10
   3.9525700e-03
   3.3879200e-03
  -1.1293100e-03
   2.8232600e-03
   3.9525700e-03
  -2.8232600e-03
  -5.6465200e-04
  -5.6465200e-04
   1.1293100e-03
   5.6465300e-04
  -2.2586100e-03
   3.9525700e-03
  -1.6939600e-03
  -3.3879200e-03
   5.6465300e-04
   2.2586100e-03
  -4.5172200e-03
  -2.8232600e-03
  -5.6465200e-04
   1.1293100e-03
  -1.6939600e-03
  -2.8232600e-03
   1.6939600e-03
  -1.6939600e-03
   5.6465300e-04
  -5.6465200e-04
  -5.6465200e-04
  -2.8232600e-03
  -1.1293100e-03
  -5.6465200e-04
  -3.9525700e-03
  -3.3879200e-03
  -1.1293100e-03
   3.5600000e-10
  -4.5172200e-03
  -1.6939600e-03
   1.1293100e-03
  -2.8232600e-03
  -1.6939600e-03
   3.5600000e-10
   3.5600000e-10
  -3.3879200e-03
  -2.2586100e-03
  -2.2586100e-03
   3.5600000e-10
  -4.5172200e-03
  -2.2586100e-03
   3.5600000e-10
  -2.2586100e-03
  -3.9525700e-03
   5.6465300e-04
  -1.1293100e-03
  -3.3879200e-03
   3.5600000e-10
  -2.8232600e-03
   3.5600000e-10
  -1.1293100e-03
  -1.1293100e-03
   3.5600000e-10
  -3.9525700e-03
   2.2586100e-03
   5.6465300e-04
  -1.1293100e-03
  -1.1293100e-03
   5.6465300e-04
   2.8232600e-03
  -2.2586100e-03
   5.6465300e-04
   1.6939600e-03
   1.1293100e-03
  -1.1293100e-03
   1.1293100e-03
   2.8232600e-03
  -1.6939600e-03
   3.5600000e-10
  -5.6465200e-04
   1.6939600e-03
  -2.8232600e-03
  -5.6465200e-04
   2.8232600e-03
  -5.6465200e-04
  -5.6465200e-04
   2.8232600e-03
   2.2586100e-03
  -1.1293100e-03
   5.6465300e-04
   1.6939600e-03
  -5.6465200e-04
  -1.1293100e-03
  -5.6465200e-04
   3.5600000e-10
  -2.2586100e-03
   3.5600000e-10
   3.5600000e-10
   2.8232600e-03
  -1.6939600e-03
   3.5600000e-10
   1.1293100e-03
  -2.2586100e-03
  -1.1293100e-03
   1.1293100e-03
   3.9525700e-03
  -1.1293100e-03
   3.5600000e-10
   1.1293100e-03
   5.6465300e-04
  -1.6939600e-03
   3.3879200e-03
   1.6939600e-03
  -2.2586100e-03
   2.8232600e-03
   3.5600000e-10
  -5.6465200e-04
  -2.2586100e-03
   1.1293100e-03
   1.6939600e-03
  -2.2586100e-03
   1.6939600e-03
   1.1293100e-03
   3.3879200e-03
  -2.2586100e-03
  -5.6465200e-04
   2.2586100e-03
   5.6465300e-04
   2.8232600e-03
   5.6465300e-04
   2.2586100e-03
  -5.6465200e-04
   1.1293100e-03
   1.1293100e-03
  -5.6465200e-04
  -1.6939600e-03
   2.8232600e-03
   3.9525700e-03
  -1.1293100e-03
   1.1293100e-03
   3.3879200e-03
   3.3879200e-03
  -1.1293100e-03
   5.6465300e-04
   3.9525700e-03
  -1.6939600e-03
  -1.1293100e-03
  -1.1293100e-03
   2.2586100e-03
  -3.3879200e-03
   5.6465300e-04
   1.1293100e-03
  -1.6939600e-03
  -5.6465200e-04
   1.1293100e-03
   4.5172200e-03
  -2.2586100e-03
   2.2586100e-03
   3.5600000e-10
   1.6939600e-03
  -1.6939600e-03
   1.1293100e-03
   2.2586100e-03
  -1.1293100e-03
  -5.6465200e-04
   1.1293100e-03
   5.6465300e-04
  -2.2586100e-03
  -5.6465200e-04
   1.6939600e-03
  -2.2586100e-03
  -5.6465200e-04
   1.1293100e-03
   3.3879200e-03
  -1.1293100e-03
   5.6465300e-04
   3.3879200e-03
  -5.6465200e-04
  -1.1293100e-03
   3.3879200e-03
   1.6939600e-03
  -2.2586100e-03
   5.6465300e-04
   2.8232600e-03
   1.1293100e-03
  -2.8232600e-03
   1.6939600e-03
   1.1293100e-03
  -1.6939600e-03
  -1.1293100e-03
   5.6465300e-04
   1.1293100e-03
  -1.6939600e-03
   1.6939600e-03
   2.8232600e-03
  -1.6939600e-03
  -1.1293100e-03
   2.8232600e-03
   2.8232600e-03
  -5.6465200e-04
   2.2586100e-03
   1.6939600e-03
  -1.1293100e-03
  -1.1293100e-03
   2.2586100e-03
   2.2586100e-03
  -2.8232600e-03
  -5.6465200e-04
   2.2586100e-03
   1.1293100e-03
   1.1293100e-03
   3.5600000e-10
   2.8232600e-03
  -3.3879200e-03
  -1.1293100e-03
   1.6939600e-03
   1.6939600e-03
  -1.6939600e-03
   1.1293100e-03
   3.9525700e-03
   3.5600000e-10
  -5.6465200e-04
   1.1293100e-03
   3.9525700e-03
  -2.8232600e-03
  -5.6465200e-04
   1.6939600e-03
   1.6939600e-03
   1.6939600e-03
   5.6465300e-04
   1.6939600e-03
  -1.1293100e-03
   2.8232600e-03
   2.8232600e-03
   2.8232600e-03
  -5.6465200e-04
   1.1293100e-03
   3.9525700e-03
  -1.1293100e-03
  -5.6465200e-04
   1.6939600e-03
   3.3879200e-03
  -3.3879200e-03
   3.3879200e-03
   1.1293100e-03
   1.1293100e-03
  -2.2586100e-03
   1.6939600e-03
   3.9525700e-03
   3.5600000e-10
   2.2586100e-03
   3.3879200e-03
   3.5600000e-10
  -1.6939600e-03
   3.5600000e-10
   2.2586100e-03
  -5.6465200e-04
  -1.1293100e-03
   1.1293100e-03
   1.6939600e-03
  -5.6465200e-04
   3.3879200e-03
  -5.6465200e-04
  -2.2586100e-03
   3.5600000e-10
   5.6465300e-04
   1.6939600e-03
  -2.2586100e-03
   3.5600000e-10
   1.1293100e-03
   3.5600000e-10
  -1.6939600e-03
   2.2586100e-03
   3.3879200e-03
  -3.3879200e-03
  -5.6465200e-04
  -1.1293100e-03
   1.1293100e-03
   1.6939600e-03
  -5.6465200e-04
   2.8232600e-03
   3.5600000e-10
   1.1293100e-03
   2.2586100e-03
   1.6939600e-03
  -2.8232600e-03
   5.6465300e-04
   2.8232600e-03
   1.1293100e-03
   1.6939600e-03
   3.3879200e-03
   3.3879200e-03
  -2.8232600e-03
   1.1293100e-03
   2.2586100e-03
   3.5600000e-10
  -1.1293100e-03
   3.3879200e-03
   5.6465300e-03
  -2.8232600e-03
   5.6465300e-04
   3.3879200e-03
   1.6939600e-03
   5.6465300e-04
   5.6465300e-04
   4.5172200e-03
  -2.2586100e-03
   3.5600000e-10
   2.8232600e-03
   4.5172200e-03
  -2.2586100e-03
   3.5600000e-10
   3.9525700e-03
  -1.1293100e-03
  -1.1293100e-03
   1.6939600e-03
   5.0818800e-03
  -1.6939600e-03
   1.6939600e-03
   3.3879200e-03
   2.2586100e-03
   5.6465300e-04
   2.2586100e-03
   4.5172200e-03
  -2.2586100e-03
   2.2586100e-03
   1.6939600e-03
   3.3879200e-03
   1.1293100e-03
   4.5172200e-03
   3.3879200e-03
  -2.2586100e-03
   3.5600000e-10
   5.6465300e-04
   3.3879200e-03
  -1.1293100e-03
   1.6939600e-03
   2.8232600e-03
   3.5600000e-10
  -5.6465200e-04
   1.1293100e-03
   3.3879200e-03
   3.5600000e-10
   2.2586100e-03
   5.6465300e-04
   3.9525700e-03
   1.6939600e-03
   1.6939600e-03
   1.6939600e-03
  -3.3879200e-03
   1.1293100e-03
   3.9525700e-03
   2.2586100e-03
  -1.1293100e-03
   2.2586100e-03
   4.5172200e-03
   1.1293100e-03
   5.6465300e-04
   3.9525700e-03
   2.2586100e-03
  -2.8232600e-03
   1.1293100e-03
   3.9525700e-03
   3.9525700e-03
   5.6465300e-04
   2.8232600e-03
   2.8232600e-03
   1.1293100e-03
   2.8232600e-03
   3.9525700e-03
   3.9525700e-03
   1.6939600e-03
   4.5172200e-03
   6.2111800e-03
   1.1293100e-03
   1.6939600e-03
   4.5172200e-03
   6.7758300e-03
   1.1293100e-03
   3.3879200e-03
   5.0818800e-03
   2.8232600e-03
   5.0818800e-03
   5.0818800e-03
   3.3879200e-03
   3.5600000e-10
   2.2586100e-03
   3.9525700e-03
   1.6939600e-03
   5.6465300e-04
   3.3879200e-03
   5.0818800e-03
   5.6465300e-04
   2.8232600e-03
   2.8232600e-03
   1.6939600e-03
  -2.2586100e-03
   5.6465300e-04
   4.5172200e-03
  -2.2586100e-03
  -1.1293100e-03
   2.8232600e-03
   2.2586100e-03
  -1.1293100e-03
   3.3879200e-03
   3.3879200e-03
   1.1293100e-03
   3.5600000e-10
   3.9525700e-03
   3.9525700e-03
   2.2586100e-03
   3.3879200e-03
   5.6465300e-03
   5.6465300e-04
   1.6939600e-03
   3.3879200e-03
   5.0818800e-03
   1.6939600e-03
   3.3879200e-03
   5.0818800e-03
   5.0818800e-03
   5.6465300e-04
   3.9525700e-03
   6.2111800e-03
   1.6939600e-03
   2.2586100e-03
   6.2111800e-03
   4.5172200e-03
   5.6465300e-04
   3.9525700e-03
   6.7758300e-03
   2.2586100e-03
   3.5600000e-10
   5.0818800e-03
   6.2111800e-03
   1.6939600e-03
   3.9525700e-03
   6.7758300e-03
   6.2111800e-03
   4.5172200e-03
   6.7758300e-03
   7.3404900e-03
   3.3879200e-03
   3.9525700e-03
   1.0163700e-02
   6.2111800e-03
   5.6465300e-03
   6.2111800e-03
   1.0163700e-02
   4.5172200e-03
   5.6465300e-03
   1.1857700e-02
   9.5991000e-03
   5.0818800e-03
   9.5991000e-03
   9.5991000e-03
   8.4697900e-03
   6.2111800e-03
   1.0163700e-02
   1.1857700e-02
   6.7758300e-03
   1.2422400e-02
   1.2987000e-02
   1.0728400e-02
   8.4697900e-03
   1.2422400e-02
   1.4681000e-02
   1.4116300e-02
   1.3551700e-02
   1.4681000e-02
   1.8068900e-02
   1.3551700e-02
   1.6939600e-02
   1.9198200e-02
   1.7504200e-02
   1.9198200e-02
   2.0327500e-02
   2.2021500e-02
   1.7504200e-02
   2.0892200e-02
   2.3715400e-02
   2.2586100e-02
   2.2021500e-02
   2.5974000e-02
   2.6538700e-02
   2.2021500e-02
   2.4280100e-02
   2.8232600e-02
   2.6538700e-02
   2.4280100e-02
   2.6538700e-02
   2.9926600e-02
   2.4844700e-02
   2.6538700e-02
   2.8797300e-02
   3.1620600e-02
   2.5974000e-02
   3.2185200e-02
   3.1055900e-02
   2.7668000e-02
   2.8232600e-02
   3.3314500e-02
   3.3314500e-02
   2.9926600e-02
   3.2185200e-02
   3.4443800e-02
   3.4443800e-02
   3.3314500e-02
   3.6137800e-02
   3.6702400e-02
   3.3314500e-02
   3.6702400e-02
   3.8961000e-02
   3.8961000e-02
   3.6702400e-02
   4.0655000e-02
   4.2349000e-02
   4.1219700e-02
   4.2913600e-02
   4.5172200e-02
   4.6301500e-02
   4.3478300e-02
   4.5172200e-02
   4.9689400e-02
   4.6866200e-02
   4.6301500e-02
   4.9124800e-02
   5.1383400e-02
   4.8560100e-02
   5.1948100e-02
   5.1948100e-02
   5.1383400e-02
   4.9689400e-02
   5.4206700e-02
   5.4206700e-02
   5.5336000e-02
   5.1948100e-02
   5.5900600e-02
   5.8723900e-02
   5.4206700e-02
   5.7594600e-02
   6.1547100e-02
   5.8159200e-02
   5.7594600e-02
   6.2676500e-02
   6.2111800e-02
   5.7029900e-02
   6.2111800e-02
   6.2111800e-02
   6.3805800e-02
   6.2676500e-02
   6.7193700e-02
   6.4935100e-02
   6.4935100e-02
   6.8323000e-02
   6.9452300e-02
   7.0581600e-02
   6.8887600e-02
   7.1710900e-02
   7.6792800e-02
   7.2275600e-02
   7.3404900e-02
   7.5663500e-02
   8.0180700e-02
   7.2275600e-02
   7.9051400e-02
   7.9616000e-02
   7.9051400e-02
   8.0180700e-02
   8.5827200e-02
   8.5827200e-02
   8.1310000e-02
   8.7521200e-02
   9.0344400e-02
   8.9779800e-02
   8.7521200e-02
   9.3167700e-02
   9.5426300e-02
   9.0909100e-02
   9.2603000e-02
   9.5426300e-02
   9.7684900e-02
   9.5426300e-02
   9.9378900e-02
   1.0333100e-01
   9.5426300e-02
   1.0050800e-01
   1.0389600e-01
   1.0615500e-01
   1.0220200e-01
   1.0615500e-01
   1.0615500e-01
   1.0784900e-01
   1.0841300e-01
   1.0954300e-01
   1.1067200e-01
   1.0954300e-01
   1.1518900e-01
   1.1518900e-01
   1.1462500e-01
   1.1236600e-01
   1.1406000e-01
   1.1744800e-01
   1.1293100e-01
   1.1631800e-01
   1.2027100e-01
   1.1801200e-01
   1.1575400e-01
   1.2027100e-01
   1.2196500e-01
   1.1914200e-01
   1.2253000e-01
   1.2196500e-01
   1.2422400e-01
   1.1744800e-01
   1.2591800e-01
   1.2648200e-01
   1.2365900e-01
   1.2309400e-01
   1.2591800e-01
   1.2817600e-01
   1.2253000e-01
   1.2648200e-01
   1.2987000e-01
   1.2761200e-01
   1.2591800e-01
   1.2761200e-01
   1.3156400e-01
   1.2874100e-01
   1.2874100e-01
   1.3156400e-01
   1.3269300e-01
   1.2704700e-01
   1.3212900e-01
   1.3438700e-01
   1.3043500e-01
   1.3325800e-01
   1.3495200e-01
   1.3608100e-01
   1.3382300e-01
   1.3438700e-01
   1.3834000e-01
   1.3551700e-01
   1.3438700e-01
   1.3551700e-01
   1.3834000e-01
   1.3438700e-01
   1.3890500e-01
   1.4116300e-01
   1.4285700e-01
   1.3777500e-01
   1.4116300e-01
   1.4624500e-01
   1.4116300e-01
   1.4342200e-01
   1.4793900e-01
   1.4793900e-01
   1.4342200e-01
   1.4737400e-01
   1.4963300e-01
   1.4737400e-01
   1.4906800e-01
   1.5076200e-01
   1.5528000e-01
   1.4906800e-01
   1.5471500e-01
   1.5584400e-01
   1.5753800e-01
   1.5528000e-01
   1.6092600e-01
   1.6600800e-01
   1.5923200e-01
   1.6149100e-01
   1.6600800e-01
   1.6600800e-01
   1.6600800e-01
   1.6826700e-01
   1.7165400e-01
   1.6770200e-01
   1.7109000e-01
   1.7673600e-01
   1.7391300e-01
   1.7278400e-01
   1.7617200e-01
   1.7956000e-01
   1.8068900e-01
   1.7956000e-01
   1.8464100e-01
   1.8802900e-01
   1.8294700e-01
   1.8802900e-01
   1.9367600e-01
   1.9198200e-01
   1.9311100e-01
   1.9537000e-01
   1.9819300e-01
   1.9424100e-01
   1.9706400e-01
   2.0214600e-01
   2.0440400e-01
   2.0101600e-01
   2.0722800e-01
   2.1061500e-01
   2.0892200e-01
   2.1230900e-01
   2.1513300e-01
   2.1852100e-01
   2.1456800e-01
   2.1852100e-01
   2.2360200e-01
   2.2190900e-01
   2.2190900e-01
   2.2529600e-01
   2.2642600e-01
   2.2247300e-01
   2.2699000e-01
   2.3037800e-01
   2.3150800e-01
   2.3207200e-01
   2.3489600e-01
   2.3828300e-01
   2.3602500e-01
   2.3884800e-01
   2.4110700e-01
   2.4393000e-01
   2.3941300e-01
   2.4336500e-01
   2.4562400e-01
   2.4505900e-01
   2.4844700e-01
   2.5014100e-01
   2.4844700e-01
   2.4618900e-01
   2.5296400e-01
   2.5409400e-01
   2.5127000e-01
   2.5352900e-01
   2.5578800e-01
   2.5691700e-01
   2.5465800e-01
   2.5861100e-01
   2.5974000e-01
   2.5974000e-01
   2.6087000e-01
   2.6143400e-01
   2.6312800e-01
   2.6087000e-01
   2.6312800e-01
   2.6708100e-01
   2.6595100e-01
   2.6595100e-01
   2.6933900e-01
   2.7216300e-01
   2.7103300e-01
   2.7216300e-01
   2.7498600e-01
   2.7724400e-01
   2.7216300e-01
   2.7837400e-01
   2.8006800e-01
   2.8119700e-01
   2.8063200e-01
   2.8458500e-01
   2.8684400e-01
   2.8458500e-01
   2.8571400e-01
   2.8966700e-01
   2.9361900e-01
   2.8853800e-01
   2.9474900e-01
   2.9926600e-01
   2.9474900e-01
   2.9813700e-01
   3.0208900e-01
   3.0660600e-01
   3.0265400e-01
   3.0773600e-01
   3.1168800e-01
   3.0943000e-01
   3.1112400e-01
   3.1733500e-01
   3.2015800e-01
   3.1733500e-01
   3.2185200e-01
   3.2467500e-01
   3.2467500e-01
   3.2411100e-01
   3.2975700e-01
   3.3427400e-01
   3.3032200e-01
   3.3709800e-01
   3.4161500e-01
   3.4048600e-01
   3.3992100e-01
   3.4387400e-01
   3.4839100e-01
   3.4500300e-01
   3.5008500e-01
   3.5290800e-01
   3.5629600e-01
   3.5121400e-01
   3.5629600e-01
   3.6081300e-01
   3.5855400e-01
   3.5855400e-01
   3.6476600e-01
   3.6476600e-01
   3.6250700e-01
   3.6702400e-01
   3.7041200e-01
   3.7323500e-01
   3.6984800e-01
   3.7380000e-01
   3.7888200e-01
   3.7436500e-01
   3.7888200e-01
   3.8001100e-01
   3.8452900e-01
   3.8170500e-01
   3.8509300e-01
   3.8735200e-01
   3.8904600e-01
   3.8678700e-01
   3.9186900e-01
   3.9525700e-01
   3.8904600e-01
   3.9469200e-01
   3.9864500e-01
   3.9469200e-01
   3.9525700e-01
   3.9920900e-01
   4.0203300e-01
   3.9864500e-01
   4.0316200e-01
   4.0372700e-01
   4.0711500e-01
   4.0316200e-01
   4.0824400e-01
   4.0993800e-01
   4.0993800e-01
   4.0824400e-01
   4.1332600e-01
   4.1727800e-01
   4.0937300e-01
   4.1445500e-01
   4.1897200e-01
   4.1502000e-01
   4.1558400e-01
   4.2010200e-01
   4.2236000e-01
   4.2066600e-01
   4.2349000e-01
   4.2461900e-01
   4.2461900e-01
   4.2518400e-01
   4.2687700e-01
   4.2970100e-01
   4.2800700e-01
   4.3139500e-01
   4.3365300e-01
   4.3421800e-01
   4.2913600e-01
   4.3647700e-01
   4.3817100e-01
   4.3534700e-01
   4.3760600e-01
   4.4042900e-01
   4.4099400e-01
   4.3817100e-01
   4.4325200e-01
   4.4381700e-01
   4.4212300e-01
   4.4607600e-01
   4.4833400e-01
   4.4946400e-01
   4.4494600e-01
   4.4889900e-01
   4.5228700e-01
   4.5341600e-01
   4.4946400e-01
   4.5567500e-01
   4.5680400e-01
   4.5454500e-01
   4.5906300e-01
   4.5849800e-01
   4.5906300e-01
   4.5680400e-01
   4.6470900e-01
   4.6583900e-01
   4.6301500e-01
   4.6301500e-01
   4.6866200e-01
   4.7148500e-01
   4.6809700e-01
   4.7261400e-01
   4.7543800e-01
   4.7487300e-01
   4.7600200e-01
   4.7939000e-01
   4.8277800e-01
   4.7939000e-01
   4.8503700e-01
   4.8673100e-01
   4.8898900e-01
   4.8729500e-01
   4.9350600e-01
   4.9745900e-01
   4.9294200e-01
   4.9633000e-01
   4.9971800e-01
   5.0141200e-01
   4.9971800e-01
   5.0536400e-01
   5.0931700e-01
   5.0705800e-01
   5.0988100e-01
   5.1270500e-01
   5.1552800e-01
   5.1439900e-01
   5.1891600e-01
   5.2399800e-01
   5.2399800e-01
   5.2004500e-01
   5.2682100e-01
   5.2851500e-01
   5.2738600e-01
   5.3359700e-01
   5.3698500e-01
   5.3642000e-01
   5.3698500e-01
   5.3980800e-01
   5.4489000e-01
   5.4150200e-01
   5.4150200e-01
   5.4601900e-01
   5.4827800e-01
   5.4771300e-01
   5.4997200e-01
   5.5505400e-01
   5.5618300e-01
   5.5505400e-01
   5.6126500e-01
   5.6352300e-01
   5.5844200e-01
   5.6634700e-01
   5.6804100e-01
   5.6804100e-01
   5.6691100e-01
   5.7368700e-01
   5.7651000e-01
   5.7255800e-01
   5.7594600e-01
   5.8046300e-01
   5.8215700e-01
   5.7933400e-01
   5.8272200e-01
   5.8893300e-01
   5.8385100e-01
   5.8723900e-01
   5.9401500e-01
   5.9401500e-01
   5.9232100e-01
   5.9627300e-01
   6.0022600e-01
   5.9796700e-01
   6.0079100e-01
   6.0304900e-01
   6.0530800e-01
   6.0304900e-01
   6.0700200e-01
   6.1151900e-01
   6.1264800e-01
   6.1095400e-01
   6.1434200e-01
   6.1829500e-01
   6.1490700e-01
   6.1829500e-01
   6.2281200e-01
   6.2563500e-01
   6.1998900e-01
   6.2732900e-01
   6.3015200e-01
   6.2620000e-01
   6.2845800e-01
   6.3071700e-01
   6.3636400e-01
   6.3071700e-01
   6.3579900e-01
   6.3918700e-01
   6.3749300e-01
   6.3749300e-01
   6.4144600e-01
   6.4539800e-01
   6.4088100e-01
   6.4483300e-01
   6.4991500e-01
   6.4878600e-01
   6.4596300e-01
   6.5273900e-01
   6.5386800e-01
   6.4652700e-01
   6.5273900e-01
   6.5273900e-01
   6.5725600e-01
   6.5443300e-01
   6.5838500e-01
   6.6233800e-01
   6.5499700e-01
   6.5782000e-01
   6.6064400e-01
   6.6290200e-01
   6.5895000e-01
   6.6233800e-01
   6.6346700e-01
   6.6572600e-01
   6.6290200e-01
   6.6629000e-01
   6.6911300e-01
   6.6290200e-01
   6.6911300e-01
   6.6967800e-01
   6.6798400e-01
   6.6516100e-01
   6.6967800e-01
   6.7193700e-01
   6.6967800e-01
   6.7193700e-01
   6.7137200e-01
   6.7588900e-01
   6.6911300e-01
   6.7645400e-01
   6.7701900e-01
   6.7588900e-01
   6.7588900e-01
   6.7871300e-01
   6.7927700e-01
   6.7984200e-01
   6.7871300e-01
   6.8379400e-01
   6.8266500e-01
   6.8097100e-01
   6.8548800e-01
   6.8831200e-01
   6.8492400e-01
   6.8661800e-01
   6.9000600e-01
   6.8944100e-01
   6.8774700e-01
   6.9113500e-01
   6.9113500e-01
   6.8944100e-01
   6.9113500e-01
   6.9508800e-01
   6.9791100e-01
   6.9508800e-01
   6.9904000e-01
   7.0129900e-01
   6.9904000e-01
   6.9960500e-01
   7.0129900e-01
   7.0525100e-01
   7.0129900e-01
   7.0468700e-01
   7.1033300e-01
   7.0863900e-01
   7.0525100e-01
   7.0863900e-01
   7.1033300e-01
   7.0581600e-01
   7.1033300e-01
   7.1089800e-01
   7.1372100e-01
   7.1202700e-01
   7.1428600e-01
   7.1315600e-01
   7.1428600e-01
   7.1033300e-01
   7.1541500e-01
   7.1767400e-01
   7.1202700e-01
   7.1654400e-01
   7.1823800e-01
   7.1598000e-01
   7.1315600e-01
   7.1767400e-01
   7.1767400e-01
   7.1259200e-01
   7.1936800e-01
   7.1880300e-01
   7.1428600e-01
   7.1654400e-01
   7.2049700e-01
   7.1598000e-01
   7.1598000e-01
   7.1485000e-01
   7.1880300e-01
   7.2049700e-01
   7.1654400e-01
   7.1372100e-01
   7.1936800e-01
   7.1823800e-01
   7.1428600e-01
   7.1823800e-01
   7.2049700e-01
   7.1202700e-01
   7.1993200e-01
   7.2275600e-01
   7.1710900e-01
   7.1598000e-01
   7.1993200e-01
   7.1767400e-01
   7.1541500e-01
   7.1880300e-01
   7.2106200e-01
   7.2049700e-01
   7.1541500e-01
   7.1993200e-01
   7.1880300e-01
   7.1880300e-01
   7.1880300e-01
   7.2106200e-01
   7.2049700e-01
   7.1767400e-01
   7.2049700e-01
   7.2162600e-01
   7.2049700e-01
   7.2106200e-01
   7.2275600e-01
   7.2444900e-01
   7.1936800e-01
   7.2049700e-01
   7.2162600e-01
   7.2614300e-01
   7.1880300e-01
   7.2332000e-01
   7.2670800e-01
   7.1993200e-01
   7.2332000e-01
   7.2557900e-01
   7.2614300e-01
   7.1936800e-01
   7.2275600e-01
   7.2501400e-01
   7.2162600e-01
   7.2219100e-01
   7.2332000e-01
   7.2219100e-01
   7.1936800e-01
   7.2049700e-01
   7.2275600e-01
   7.2162600e-01
   7.2219100e-01
   7.2049700e-01
   7.2275600e-01
   7.1823800e-01
   7.1993200e-01
   7.2106200e-01
   7.1823800e-01
   7.1428600e-01
   7.1936800e-01
   7.1710900e-01
   7.1485000e-01
   7.1485000e-01
   7.1541500e-01
   7.1541500e-01
   7.1146200e-01
   7.1315600e-01
   7.1654400e-01
   7.1259200e-01
   7.0976800e-01
   7.1146200e-01
   7.1089800e-01
   7.0920400e-01
   7.0976800e-01
   7.0863900e-01
   7.0751000e-01
   7.0638100e-01
   7.0694500e-01
   7.0581600e-01
   6.9960500e-01
   7.0129900e-01
   7.0129900e-01
   7.0016900e-01
   6.9734600e-01
   6.9734600e-01
   6.9621700e-01
   6.9282900e-01
   6.9226400e-01
   6.9452300e-01
   6.9282900e-01
   6.8887600e-01
   6.9113500e-01
   6.8831200e-01
   6.8379400e-01
   6.8492400e-01
   6.8210100e-01
   6.8435900e-01
   6.7814800e-01
   6.7927700e-01
   6.7871300e-01
   6.7927700e-01
   6.7476000e-01
   6.7588900e-01
   6.7701900e-01
   6.6798400e-01
   6.6798400e-01
   6.7193700e-01
   6.6798400e-01
   6.6346700e-01
   6.6742000e-01
   6.6629000e-01
   6.5895000e-01
   6.5951400e-01
   6.5951400e-01
   6.5669100e-01
   6.5273900e-01
   6.5443300e-01
   6.5330300e-01
   6.5160900e-01
   6.4765700e-01
   6.4313900e-01
   6.4483300e-01
   6.3579900e-01
   6.3862200e-01
   6.4031600e-01
   6.3579900e-01
   6.2902300e-01
   6.2902300e-01
   6.2732900e-01
   6.1998900e-01
   6.1885900e-01
   6.1603600e-01
   6.1321300e-01
   6.0869600e-01
   6.0813100e-01
   6.0417800e-01
   6.0022600e-01
   5.9627300e-01
   5.9175600e-01
   5.9175600e-01
   5.7989800e-01
   5.7876900e-01
   5.7764000e-01
   5.7086400e-01
   5.6352300e-01
   5.6070000e-01
   5.5787700e-01
   5.4771300e-01
   5.4489000e-01
   5.4093700e-01
   5.3642000e-01
   5.2908000e-01
   5.2456200e-01
   5.1722200e-01
   5.0818700e-01
   5.0310600e-01
   4.9971800e-01
   4.9463600e-01
   4.8108400e-01
   4.8108400e-01
   4.7374400e-01
   4.6188600e-01
   4.5680400e-01
   4.5115800e-01
   4.4494600e-01
   4.3252400e-01
   4.2574800e-01
   4.2010200e-01
   4.1219600e-01
   3.9638600e-01
   3.9299800e-01
   3.8452900e-01
   3.7380000e-01
   3.6363600e-01
   3.5911900e-01
   3.4839100e-01
   3.3540400e-01
   3.3088700e-01
   3.2298100e-01
   3.0717100e-01
   2.9983100e-01
   2.8966700e-01
   2.8063200e-01
   2.6369300e-01
   2.5691700e-01
   2.4788300e-01
   2.3715400e-01
   2.2360200e-01
   2.1739100e-01
   2.0722800e-01
   1.9198200e-01
   1.8577100e-01
   1.7673600e-01
   1.6600800e-01
   1.5415000e-01
   1.4681000e-01
   1.3777500e-01
   1.2365900e-01
   1.1744800e-01
   1.0841300e-01
   1.0333100e-01
   9.4861700e-02
   9.3167700e-02
   8.5827200e-02
   8.1874600e-02
   7.6792800e-02
   7.5663500e-02
   7.3404900e-02
   7.0581600e-02
   7.0581600e-02
   6.4370400e-02
   6.4935100e-02
   5.5900600e-02
   5.6465300e-02
   5.9853200e-02
   4.4042900e-02
   4.6866200e-02
   4.9689400e-02
   4.3478300e-02
   4.0090300e-02
   3.6702400e-02
   4.0090300e-02
   3.5008500e-02
   3.0491200e-02
   3.5573100e-02
   3.1620600e-02
   2.4844700e-02
   2.8232600e-02
   2.7103300e-02
   2.5409400e-02
   2.2586100e-02
   2.3715400e-02
   2.3715400e-02
   1.7504200e-02
   2.0892200e-02
   1.9198200e-02
   1.6939600e-02
   1.4681000e-02
   1.8633500e-02
   2.0327500e-02
   1.3551700e-02
   1.4116300e-02
   1.5245600e-02
   1.7504200e-02
   1.1857700e-02
   1.3551700e-02
   1.4681000e-02
   1.0728400e-02
   1.1857700e-02
   1.2987000e-02
   1.3551700e-02
   8.4697900e-03
   1.0728400e-02
   1.1293100e-02
   7.9051400e-03
   1.0728400e-02
   7.9051400e-03
   9.5991000e-03
   3.9525700e-03
   4.5172200e-03
   7.9051400e-03
   7.3404900e-03
   3.9525700e-03
   7.3404900e-03
   7.9051400e-03
   4.5172200e-03
   5.0818800e-03
   5.6465300e-03
   7.3404900e-03
   3.3879200e-03
   7.9051400e-03
   1.0163700e-02
   1.6939600e-03
   2.8232600e-03
   7.9051400e-03
   5.6465300e-03
   1.6939600e-03
   5.6465300e-03
   3.9525700e-03
   2.2586100e-03
   5.0818800e-03
   3.9525700e-03
   5.0818800e-03
   3.3879200e-03
   1.1293100e-03
   5.6465300e-03
   4.5172200e-03
  -2.2586100e-03
   1.1293100e-03
   3.9525700e-03
   3.5600000e-10
   3.3879200e-03
   4.5172200e-03
   2.8232600e-03
   2.2586100e-03
   3.9525700e-03
   5.6465300e-03
   1.1293100e-03
   1.1293100e-03
   5.6465300e-03
   3.9525700e-03
   1.6939600e-03
   1.1293100e-03
   3.9525700e-03
   4.5172200e-03
   3.5600000e-10
   2.2586100e-03
   5.6465300e-03
  -2.2586100e-03
   1.6939600e-03
   2.8232600e-03
   2.2586100e-03
   2.8232600e-03
   2.2586100e-03
   2.8232600e-03
   1.6939600e-03
   1.1293100e-03
   2.2586100e-03
   2.2586100e-03
  -3.3879200e-03
   3.3879200e-03
   2.8232600e-03
   5.6465300e-04
   1.1293100e-03
   4.5172200e-03
   2.8232600e-03
  -1.1293100e-03
   3.9525700e-03
   2.8232600e-03
   3.3879200e-03
   1.6939600e-03
   3.3879200e-03
   6.2111800e-03
  -5.6465200e-04
   3.3879200e-03
   4.5172200e-03
   2.8232600e-03
   3.5600000e-10
   5.0818800e-03
   3.3879200e-03
  -5.6465200e-04
   3.5600000e-10
   1.6939600e-03
   3.9525700e-03
   3.5600000e-10
   3.9525700e-03
   2.8232600e-03
   5.6465300e-04
   5.6465300e-03
   3.9525700e-03
   4.5172200e-03
   2.2586100e-03
   3.9525700e-03
   3.9525700e-03
   2.8232600e-03
   5.6465300e-04
   2.2586100e-03
   5.0818800e-03
   1.6939600e-03
   2.8232600e-03
   4.5172200e-03
   2.8232600e-03
   3.5600000e-10
   5.6465300e-03
   2.8232600e-03
  -5.6465200e-04
   2.8232600e-03
   2.2586100e-03
   6.2111800e-03
   3.5600000e-10
  -5.6465200e-04
   3.9525700e-03
   3.9525700e-03
   1.1293100e-03
   4.5172200e-03
   2.8232600e-03
  -3.3879200e-03
   3.3879200e-03
   4.5172200e-03
   2.8232600e-03
  -5.6465200e-04
   4.5172200e-03
   3.3879200e-03
   2.2586100e-03
  -5.6465200e-04
   3.5600000e-10
   5.6465300e-03
   1.1293100e-03
   2.8232600e-03
   1.6939600e-03
  -1.1293100e-03
   2.2586100e-03
   3.9525700e-03
   2.2586100e-03
  -2.8232600e-03
   5.6465300e-04
   2.2586100e-03
   1.1293100e-03
   3.5600000e-10
   2.8232600e-03
   5.0818800e-03
  -5.6465200e-04
  -5.6465200e-04
   1.1293100e-03
   5.0818800e-03
  -2.8232600e-03
   3.3879200e-03
   3.9525700e-03
   5.6465300e-04
   2.2586100e-03
   3.9525700e-03
   2.2586100e-03
  -2.2586100e-03
   1.1293100e-03
   1.6939600e-03
  -5.6465200e-04
  -1.6939600e-03
   2.2586100e-03
   3.3879200e-03
  -3.3879200e-03
   3.5600000e-10
   5.0818800e-03
   3.5600000e-10
   3.5600000e-10
   3.5600000e-10
   4.5172200e-03
  -2.8232600e-03
   1.6939600e-03
   1.1293100e-03
   2.8232600e-03
  -1.6939600e-03
   5.6465300e-04
   1.1293100e-03
  -5.6465200e-04
  -1.1293100e-03
   1.1293100e-03
   1.6939600e-03
  -3.3879200e-03
   1.6939600e-03
   3.9525700e-03
   1.1293100e-03
   1.6939600e-03
   1.6939600e-03
   3.9525700e-03
  -1.1293100e-03
   1.1293100e-03
   3.9525700e-03
   3.3879200e-03
  -5.6465200e-04
   3.9525700e-03
   3.3879200e-03
   5.6465300e-04
   5.6465300e-04
   1.6939600e-03
   1.1293100e-03
  -1.6939600e-03
   2.8232600e-03
   1.1293100e-03
   1.6939600e-03
   1.6939600e-03
   1.1293100e-03
   3.9525700e-03
  -1.6939600e-03
   1.1293100e-03
   3.9525700e-03
   5.6465300e-04
  -3.3879200e-03
   5.6465300e-04
   3.5600000e-10
  -2.8232600e-03
  -1.1293100e-03
   1.1293100e-03
   4.5172200e-03
   1.6939600e-03
   1.1293100e-03
   3.9525700e-03
   3.5600000e-10
   3.5600000e-10
   3.9525700e-03
   2.2586100e-03
  -5.6465200e-04
   2.2586100e-03
   3.9525700e-03
   3.5600000e-10
  -2.8232600e-03
   2.2586100e-03
   1.1293100e-03
  -3.3879200e-03
   1.1293100e-03
   2.8232600e-03
   5.6465300e-04
  -5.6465200e-04
   1.1293100e-03
   4.5172200e-03
  -2.8232600e-03
   2.8232600e-03
   3.3879200e-03
   1.1293100e-03
  -1.1293100e-03
   3.3879200e-03
   1.1293100e-03
  -1.1293100e-03
   1.1293100e-03
   1.6939600e-03
   3.3879200e-03
  -3.3879200e-03
   2.2586100e-03
   1.1293100e-03
  -5.6465200e-04
   3.5600000e-10
   3.3879200e-03
   2.8232600e-03
  -5.6465200e-04
   2.2586100e-03
   3.3879200e-03
   1.1293100e-03
  -1.1293100e-03
   3.9525700e-03
   3.9525700e-03
  -5.6465200e-04
  -1.6939600e-03
   1.6939600e-03
   1.1293100e-03
  -5.6465200e-04
  -5.6465200e-04
   1.1293100e-03
  -1.1293100e-03
  -5.6465200e-04
   5.6465300e-04
   3.3879200e-03
  -3.3879200e-03
  -5.6465200e-04
   5.6465300e-04
  -5.6465200e-04
  -1.1293100e-03
   3.5600000e-10
   5.6465300e-04
  -2.2586100e-03
  -1.1293100e-03
   1.6939600e-03
   2.8232600e-03
  -1.6939600e-03
   1.6939600e-03
   2.8232600e-03
  -3.9525700e-03
  -1.6939600e-03
   1.1293100e-03
   1.6939600e-03
  -2.8232600e-03
  -5.6465200e-04
   1.1293100e-03
  -2.2586100e-03
   3.5600000e-10
   5.6465300e-04
   3.9525700e-03
  -2.2586100e-03
   2.8232600e-03
   2.2586100e-03
  -5.6465200e-04
  -2.8232600e-03
   1.1293100e-03
   2.2586100e-03
  -3.3879200e-03
  -5.6465200e-04
   3.5600000e-10
   5.6465300e-04
  -3.3879200e-03
  -5.6465200e-04
   1.1293100e-03
  -4.5172200e-03
  -1.1293100e-03
  -1.6939600e-03
   1.1293100e-03
  -2.8232600e-03
  -1.1293100e-03
   5.6465300e-04
   3.5600000e-10
  -1.6939600e-03
   5.6465300e-04
   1.6939600e-03
  -3.9525700e-03
   1.6939600e-03
   1.1293100e-03
   5.6465300e-04
  -3.3879200e-03
   3.3879200e-03
   5.0818800e-03
  -4.5172200e-03
   5.6465300e-04
   1.1293100e-03
   1.1293100e-03
  -3.9525700e-03
   1.1293100e-03
   3.9525700e-03
  -2.2586100e-03
   3.5600000e-10
   1.6939600e-03
   2.8232600e-03
  -2.8232600e-03
   5.6465300e-04
   1.6939600e-03
   3.5600000e-10
  -1.1293100e-03
   2.8232600e-03
   3.9525700e-03
   5.6465300e-04
   2.8232600e-03
   3.5600000e-10
   2.8232600e-03
   1.6939600e-03
   1.6939600e-03
   3.3879200e-03
   3.5600000e-10
   5.6465300e-04
   2.8232600e-03
   1.6939600e-03
   3.5600000e-10
   2.8232600e-03
   2.2586100e-03
   3.5600000e-10
   1.6939600e-03
   3.3879200e-03
   3.9525700e-03
  -1.1293100e-03
  -5.6465200e-04
   2.2586100e-03
   5.6465300e-04
   1.6939600e-03
   2.8232600e-03
   3.3879200e-03
  -5.6465200e-04
   1.6939600e-03
   5.0818800e-03
   3.3879200e-03
   3.5600000e-10
   2.8232600e-03
   4.5172200e-03
  -5.6465200e-04
   1.1293100e-03
   2.8232600e-03
   1.6939600e-03
  -5.6465200e-04
   1.6939600e-03
   3.9525700e-03
   1.1293100e-03
   3.5600000e-10
   3.9525700e-03
   5.0818800e-03
  -1.6939600e-03
   5.6465300e-04
   3.9525700e-03
   5.6465300e-04
   1.1293100e-03
   2.8232600e-03
   4.5172200e-03
  -1.6939600e-03
   2.2586100e-03
   3.9525700e-03
   1.6939600e-03
  -1.1293100e-03
   2.2586100e-03
   2.8232600e-03
  -5.6465200e-04
   3.5600000e-10
   2.2586100e-03
   1.6939600e-03
  -5.6465200e-04
   2.2586100e-03
   2.2586100e-03
   5.6465300e-04
   5.6465300e-04
   1.6939600e-03
   2.2586100e-03
   5.6465300e-04
   1.1293100e-03
   3.3879200e-03
   3.3879200e-03
   5.6465300e-04
   1.1293100e-03
   3.9525700e-03
   3.5600000e-10
   5.6465300e-04
   1.6939600e-03
   3.3879200e-03
  -1.6939600e-03
   2.2586100e-03
   2.2586100e-03
   5.6465300e-04
   1.1293100e-03
   1.6939600e-03
   5.0818800e-03
  -3.3879200e-03
  -1.1293100e-03
   1.6939600e-03
   1.6939600e-03
   3.5600000e-10
   1.6939600e-03
   2.8232600e-03
   3.5600000e-10
   1.6939600e-03
   4.5172200e-03
   1.6939600e-03
   5.6465300e-04
   5.6465300e-03
   3.3879200e-03
  -1.1293100e-03
   1.6939600e-03
   1.1293100e-03
   5.6465300e-04
  -2.8232600e-03
   2.2586100e-03
   2.8232600e-03
   3.5600000e-10
   1.1293100e-03
   2.2586100e-03
   4.5172200e-03
  -2.2586100e-03
   1.6939600e-03
   1.1293100e-03
   1.6939600e-03
   3.5600000e-10
  -5.6465200e-04
   2.8232600e-03
  -3.9525700e-03
  -2.2586100e-03
   3.3879200e-03
   5.6465300e-04
  -1.6939600e-03
   1.6939600e-03
   1.1293100e-03
  -2.8232600e-03
  -5.6465200e-04
   5.6465300e-04
   2.2586100e-03
   3.5600000e-10
   5.6465300e-04
   2.8232600e-03
  -1.1293100e-03
  -1.1293100e-03
   2.2586100e-03
   5.6465300e-03
   3.5600000e-10
   2.8232600e-03
   3.3879200e-03
   1.1293100e-03
  -2.2586100e-03
   5.6465300e-04
   3.9525700e-03
  -1.1293100e-03
  -5.6465200e-04
   1.1293100e-03
   2.8232600e-03
  -2.2586100e-03
   1.6939600e-03
   3.9525700e-03
  -2.2586100e-03
   2.8232600e-03
   1.1293100e-03
   4.5172200e-03
  -2.2586100e-03
   5.6465300e-04
   1.1293100e-03
  -5.6465200e-04
   3.5600000e-10
   5.6465300e-04
   1.6939600e-03
  -3.3879200e-03
   5.6465300e-04
   1.1293100e-03
   3.5600000e-10
   1.1293100e-03
  -1.1293100e-03
   3.5600000e-10
  -2.2586100e-03
   3.3879200e-03
   5.0818800e-03
   1.6939600e-03
  -5.6465200e-04
   1.1293100e-03
   3.3879200e-03
   3.5600000e-10
   1.1293100e-03
   1.1293100e-03
   2.8232600e-03
  -3.3879200e-03
   5.6465300e-04
   2.8232600e-03
   1.1293100e-03
   3.5600000e-10
   2.2586100e-03
   1.6939600e-03
  -2.8232600e-03
   1.6939600e-03
   3.9525700e-03
   5.6465300e-04
  -1.1293100e-03
   1.6939600e-03
   2.8232600e-03
  -1.6939600e-03
   5.6465300e-04
   1.6939600e-03
   3.3879200e-03
  -5.6465200e-04
   2.2586100e-03
   2.2586100e-03
  -1.6939600e-03
   1.6939600e-03
   2.2586100e-03
   5.0818800e-03
  -2.2586100e-03
   1.6939600e-03
   3.3879200e-03
   2.2586100e-03
  -1.1293100e-03
   1.6939600e-03
   5.0818800e-03
   3.5600000e-10
   1.6939600e-03
   3.9525700e-03
   2.2586100e-03
   1.6939600e-03
   3.3879200e-03
   3.9525700e-03
  -5.6465200e-04
  -1.1293100e-03
   3.9525700e-03
   2.2586100e-03
  -5.6465200e-04
   2.2586100e-03
   3.9525700e-03
   1.1293100e-03
   5.6465300e-04
   2.8232600e-03
   3.9525700e-03
  -1.1293100e-03
   1.1293100e-03
   7.3404900e-03
   4.5172200e-03
  -2.2586100e-03
   5.6465300e-04
   2.2586100e-03
  -2.8232600e-03
   1.1293100e-03
   1.6939600e-03
   1.1293100e-03
  -2.2586100e-03
   5.6465300e-04
   1.1293100e-03
  -2.8232600e-03
  -3.3879200e-03
   2.2586100e-03
   1.1293100e-03
  -1.6939600e-03
   1.6939600e-03
   3.3879200e-03
  -1.6939600e-03
  -3.3879200e-03
  -5.6465200e-04
   1.6939600e-03
  -3.9525700e-03
  -1.1293100e-03
   1.1293100e-03
   1.1293100e-03
  -2.2586100e-03
   1.1293100e-03
   2.2586100e-03
  -1.1293100e-03
   5.6465300e-04
   3.3879200e-03
   1.6939600e-03
  -3.3879200e-03
   5.6465300e-04
   2.8232600e-03
   5.6465300e-04
   5.6465300e-04
   3.3879200e-03
   3.9525700e-03
  -1.1293100e-03
   1.1293100e-03
   2.2586100e-03
   5.6465300e-04
   5.6465300e-04
   3.3879200e-03
   2.8232600e-03
  -1.1293100e-03
