  -4.1357400e+00
  -4.0918000e+00
  -4.0771500e+00
  -4.1552700e+00
  -4.1162100e+00
  -4.1015600e+00
  -4.1162100e+00
  -4.1455100e+00
  -4.0918000e+00
  -4.1455100e+00
  -4.1601600e+00
  -4.1650400e+00
  -4.0918000e+00
  -4.1064500e+00
  -4.1406300e+00
  -4.1357400e+00
  -4.1015600e+00
  -4.1455100e+00
  -4.1308600e+00
  -4.1210900e+00
  -4.1113300e+00
  -4.1455100e+00
  -4.0771500e+00
  -4.1113300e+00
  -4.1601600e+00
  -4.1113300e+00
  -4.0820300e+00
  -4.0820300e+00
  -4.1894500e+00
  -4.1406300e+00
  -4.0869100e+00
  -4.1064500e+00
  -4.1552700e+00
  -4.0966800e+00
  -4.1064500e+00
  -4.1552700e+00
  -4.1308600e+00
  -4.0918000e+00
  -4.0869100e+00
  -4.1210900e+00
  -4.1455100e+00
  -4.0722700e+00
  -4.1259800e+00
  -4.0966800e+00
  -4.0722700e+00
  -4.0820300e+00
  -4.1601600e+00
  -4.1308600e+00
  -4.1064500e+00
  -4.1064500e+00
  -4.1162100e+00
  -4.1162100e+00
  -4.1064500e+00
  -4.1210900e+00
  -4.1210900e+00
  -4.1162100e+00
  -4.0478500e+00
  -4.1357400e+00
  -4.0869100e+00
  -4.1259800e+00
  -4.1748000e+00
  -4.1601600e+00
  -4.0722700e+00
  -4.0429700e+00
  -4.1308600e+00
  -4.1162100e+00
  -4.0966800e+00
  -4.1064500e+00
  -4.1259800e+00
  -4.0918000e+00
  -4.0771500e+00
  -4.1308600e+00
  -4.1015600e+00
  -4.0673800e+00
  -4.1406300e+00
  -4.0918000e+00
  -4.0478500e+00
  -4.0966800e+00
  -4.1503900e+00
  -4.1308600e+00
  -4.1064500e+00
  -4.1015600e+00
  -4.1210900e+00
  -4.0820300e+00
  -4.0820300e+00
  -4.1113300e+00
  -4.1210900e+00
  -4.0820300e+00
  -4.0673800e+00
  -4.1699200e+00
  -4.0527300e+00
  -4.1162100e+00
  -4.1357400e+00
  -4.1601600e+00
  -4.0820300e+00
  -4.1210900e+00
  -4.1357400e+00
  -4.0918000e+00
  -4.1015600e+00
  -4.1210900e+00
  -4.1406300e+00
  -4.1113300e+00
  -4.0820300e+00
  -4.1455100e+00
  -4.1308600e+00
  -4.0869100e+00
  -4.0527300e+00
  -4.0771500e+00
  -4.1064500e+00
  -4.1162100e+00
  -4.1162100e+00
  -4.1308600e+00
  -4.1113300e+00
  -4.0771500e+00
  -4.1259800e+00
  -4.1259800e+00
  -4.1064500e+00
  -4.1357400e+00
  -4.1308600e+00
  -4.1113300e+00
  -4.1113300e+00
  -4.1308600e+00
  -4.1015600e+00
  -4.1210900e+00
  -4.1455100e+00
  -4.1210900e+00
  -4.1552700e+00
  -4.1162100e+00
  -4.1406300e+00
  -4.1113300e+00
  -4.1259800e+00
  -4.1064500e+00
  -4.1601600e+00
  -4.1064500e+00
  -4.1113300e+00
  -4.1503900e+00
  -4.1503900e+00
  -4.1259800e+00
  -4.1162100e+00
  -4.1455100e+00
  -4.1113300e+00
  -4.1210900e+00
  -4.1210900e+00
  -4.1796900e+00
  -4.0966800e+00
  -4.1113300e+00
  -4.1748000e+00
  -4.1210900e+00
  -4.1064500e+00
  -4.1210900e+00
  -4.1357400e+00
  -4.1650400e+00
  -4.1406300e+00
  -4.1503900e+00
  -4.1015600e+00
  -4.1259800e+00
  -4.1357400e+00
  -4.1113300e+00
  -4.1308600e+00
  -4.1308600e+00
  -4.1552700e+00
  -4.0966800e+00
  -4.1259800e+00
  -4.0966800e+00
  -4.1308600e+00
  -4.1162100e+00
  -4.1162100e+00
  -4.1210900e+00
  -4.1064500e+00
  -4.1162100e+00
  -4.1015600e+00
  -4.1455100e+00
  -4.1064500e+00
  -4.0771500e+00
  -4.0673800e+00
  -4.1064500e+00
  -4.1015600e+00
  -4.0722700e+00
  -4.1210900e+00
  -4.0625000e+00
  -4.0771500e+00
  -4.0478500e+00
  -4.1259800e+00
  -4.0673800e+00
  -4.0332000e+00
  -4.0869100e+00
  -4.0869100e+00
  -4.0673800e+00
  -4.0429700e+00
  -4.0576200e+00
  -4.0478500e+00
  -4.0039100e+00
  -4.0283200e+00
  -4.0332000e+00
  -4.0722700e+00
  -3.9990200e+00
  -4.0625000e+00
  -4.0478500e+00
  -3.9843800e+00
  -4.0087900e+00
  -4.0527300e+00
  -4.0136700e+00
  -3.9941400e+00
  -3.9941400e+00
  -4.0136700e+00
  -3.9502000e+00
  -3.9355500e+00
  -4.0234400e+00
  -3.9257800e+00
  -3.9794900e+00
  -3.9648400e+00
  -3.9990200e+00
  -3.9843800e+00
  -3.9404300e+00
  -3.9550800e+00
  -3.9502000e+00
  -3.9209000e+00
  -3.9160200e+00
  -3.9257800e+00
  -3.8964800e+00
  -3.9013700e+00
  -3.9257800e+00
  -3.9209000e+00
  -3.8671900e+00
  -3.8476600e+00
  -3.9404300e+00
  -3.8476600e+00
  -3.8574200e+00
  -3.8769500e+00
  -3.8623000e+00
  -3.8818400e+00
  -3.8525400e+00
  -3.8769500e+00
  -3.8769500e+00
  -3.8378900e+00
  -3.8281300e+00
  -3.8720700e+00
  -3.8427700e+00
  -3.8330100e+00
  -3.8574200e+00
  -3.8281300e+00
  -3.8427700e+00
  -3.8183600e+00
  -3.8232400e+00
  -3.8330100e+00
  -3.8232400e+00
  -3.8232400e+00
  -3.8427700e+00
  -3.7841800e+00
  -3.8085900e+00
  -3.8623000e+00
  -3.8232400e+00
  -3.7793000e+00
  -3.7988300e+00
  -3.8330100e+00
  -3.8085900e+00
  -3.7793000e+00
  -3.8427700e+00
  -3.8330100e+00
  -3.7695300e+00
  -3.7695300e+00
  -3.8378900e+00
  -3.8281300e+00
  -3.7451200e+00
  -3.8574200e+00
  -3.8232400e+00
  -3.8037100e+00
  -3.8085900e+00
  -3.8330100e+00
  -3.8037100e+00
  -3.8134800e+00
  -3.8574200e+00
  -3.8427700e+00
  -3.8085900e+00
  -3.7695300e+00
  -3.8867200e+00
  -3.8720700e+00
  -3.8281300e+00
  -3.8476600e+00
  -3.8671900e+00
  -3.8183600e+00
  -3.8525400e+00
  -3.9062500e+00
  -3.8525400e+00
  -3.8671900e+00
  -3.8769500e+00
  -3.8769500e+00
  -3.8476600e+00
  -3.8818400e+00
  -3.9306600e+00
  -3.8623000e+00
  -3.8623000e+00
  -3.9111300e+00
  -3.9404300e+00
  -3.9209000e+00
  -3.9209000e+00
  -3.9209000e+00
  -3.9746100e+00
  -3.9355500e+00
  -3.9062500e+00
  -3.9843800e+00
  -3.9550800e+00
  -3.9209000e+00
  -3.9502000e+00
  -3.9550800e+00
  -3.9355500e+00
  -3.9502000e+00
  -4.0087900e+00
  -3.9697300e+00
  -3.9599600e+00
  -3.9794900e+00
  -3.9990200e+00
  -3.9697300e+00
  -4.0185500e+00
  -4.0673800e+00
  -4.0087900e+00
  -3.9990200e+00
  -3.9941400e+00
  -4.0527300e+00
  -4.0185500e+00
  -3.9990200e+00
  -4.0380900e+00
  -4.0234400e+00
  -4.0283200e+00
  -4.0136700e+00
  -4.0722700e+00
  -4.0527300e+00
  -4.0380900e+00
  -4.0527300e+00
  -4.1113300e+00
  -4.0625000e+00
  -4.0087900e+00
  -4.0820300e+00
  -4.0527300e+00
  -4.0625000e+00
  -4.0429700e+00
  -4.0869100e+00
  -4.0673800e+00
  -4.0722700e+00
  -4.0966800e+00
  -4.0722700e+00
  -4.1210900e+00
  -4.0429700e+00
  -4.1406300e+00
  -4.0918000e+00
  -4.1015600e+00
  -4.1308600e+00
  -4.0771500e+00
  -4.0820300e+00
  -4.0869100e+00
  -4.1210900e+00
  -4.0966800e+00
  -4.0771500e+00
  -4.0869100e+00
  -4.1015600e+00
  -4.1162100e+00
  -4.1064500e+00
  -4.1552700e+00
  -4.1406300e+00
  -4.0966800e+00
  -4.1064500e+00
  -4.1503900e+00
  -4.1308600e+00
  -4.1357400e+00
  -4.1503900e+00
  -4.1308600e+00
  -4.1064500e+00
  -4.1162100e+00
  -4.1650400e+00
  -4.1308600e+00
  -4.0869100e+00
  -4.1357400e+00
  -4.1503900e+00
  -4.1259800e+00
  -4.1357400e+00
  -4.1259800e+00
  -4.1552700e+00
  -4.1357400e+00
  -4.1113300e+00
  -4.1503900e+00
  -4.1015600e+00
  -4.1357400e+00
  -4.1894500e+00
  -4.1552700e+00
  -4.1357400e+00
  -4.1308600e+00
  -4.1748000e+00
  -4.1259800e+00
  -4.1064500e+00
  -4.1503900e+00
  -4.1699200e+00
  -4.1406300e+00
  -4.0869100e+00
  -4.1894500e+00
  -4.1357400e+00
  -4.1113300e+00
  -4.1601600e+00
  -4.1406300e+00
  -4.1357400e+00
  -4.0722700e+00
  -4.1796900e+00
  -4.1357400e+00
  -4.1064500e+00
  -4.1210900e+00
  -4.1601600e+00
  -4.1113300e+00
  -4.1406300e+00
  -4.1699200e+00
  -4.1455100e+00
  -4.1406300e+00
  -4.1210900e+00
  -4.1748000e+00
  -4.1406300e+00
  -4.0722700e+00
  -4.1943400e+00
  -4.1796900e+00
  -4.1162100e+00
  -4.1259800e+00
  -4.1699200e+00
  -4.1357400e+00
  -4.1113300e+00
  -4.1503900e+00
  -4.1406300e+00
  -4.1210900e+00
  -4.1064500e+00
  -4.1455100e+00
  -4.1748000e+00
  -4.0918000e+00
  -4.1308600e+00
  -4.1699200e+00
  -4.1845700e+00
  -4.1259800e+00
  -4.1503900e+00
  -4.1357400e+00
  -4.1308600e+00
  -4.1357400e+00
  -4.1943400e+00
  -4.1308600e+00
  -4.1259800e+00
  -4.1406300e+00
  -4.1406300e+00
  -4.1406300e+00
  -4.1308600e+00
  -4.1650400e+00
  -4.1210900e+00
  -4.1259800e+00
  -4.1406300e+00
  -4.1894500e+00
  -4.1210900e+00
  -4.1406300e+00
  -4.1943400e+00
  -4.1601600e+00
  -4.1308600e+00
  -4.1308600e+00
  -4.1845700e+00
  -4.1552700e+00
  -4.1259800e+00
  -4.1650400e+00
  -4.1455100e+00
  -4.0966800e+00
  -4.1650400e+00
  -4.1699200e+00
  -4.1259800e+00
  -4.1845700e+00
  -4.1796900e+00
  -4.1406300e+00
  -4.1552700e+00
  -4.1357400e+00
  -4.1845700e+00
  -4.1601600e+00
  -4.1308600e+00
  -4.1503900e+00
  -4.1748000e+00
  -4.1503900e+00
  -4.1455100e+00
  -4.2187500e+00
  -4.1113300e+00
  -4.1259800e+00
  -4.1455100e+00
  -4.1357400e+00
  -4.1455100e+00
  -4.1357400e+00
  -4.1357400e+00
  -4.1406300e+00
  -4.1162100e+00
  -4.1259800e+00
  -4.1650400e+00
  -4.1210900e+00
  -4.1406300e+00
  -4.1308600e+00
  -4.1601600e+00
  -4.1357400e+00
  -4.1308600e+00
  -4.1796900e+00
  -4.1113300e+00
  -4.1308600e+00
  -4.1308600e+00
  -4.1796900e+00
  -4.1210900e+00
  -4.1015600e+00
  -4.1552700e+00
  -4.1259800e+00
  -4.1357400e+00
  -4.1259800e+00
  -4.1796900e+00
  -4.1259800e+00
  -4.0966800e+00
  -4.1503900e+00
  -4.1699200e+00
  -4.1015600e+00
  -4.0966800e+00
  -4.1455100e+00
  -4.1259800e+00
  -4.0625000e+00
  -4.1650400e+00
  -4.1455100e+00
  -4.0869100e+00
  -4.1162100e+00
  -4.1748000e+00
  -4.1406300e+00
  -4.1015600e+00
  -4.1210900e+00
  -4.1259800e+00
  -4.1210900e+00
  -4.1015600e+00
  -4.1308600e+00
  -4.1503900e+00
  -4.0820300e+00
  -4.0869100e+00
  -4.1699200e+00
  -4.1650400e+00
  -4.0966800e+00
  -4.1210900e+00
  -4.1308600e+00
  -4.1064500e+00
  -4.1064500e+00
  -4.1650400e+00
  -4.1308600e+00
  -4.0966800e+00
  -4.0918000e+00
  -4.1406300e+00
  -4.0722700e+00
  -4.1064500e+00
  -4.0966800e+00
  -4.1308600e+00
  -4.1113300e+00
  -4.1064500e+00
  -4.1650400e+00
  -4.1357400e+00
  -4.1113300e+00
  -4.1503900e+00
  -4.1259800e+00
  -4.1113300e+00
  -4.0966800e+00
  -4.1503900e+00
  -4.1064500e+00
  -4.1113300e+00
  -4.1308600e+00
  -4.1503900e+00
  -4.1357400e+00
  -4.1064500e+00
  -4.1455100e+00
  -4.1308600e+00
  -4.0918000e+00
  -4.1357400e+00
  -4.1357400e+00
  -4.0722700e+00
  -4.0869100e+00
  -4.1406300e+00
  -4.1357400e+00
  -4.1015600e+00
  -4.0820300e+00
  -4.1552700e+00
  -4.1162100e+00
  -4.1162100e+00
  -4.1796900e+00
  -4.1308600e+00
  -4.1113300e+00
  -4.0771500e+00
  -4.1894500e+00
  -4.1503900e+00
  -4.1259800e+00
  -4.0966800e+00
  -4.1650400e+00
  -4.1113300e+00
  -4.1210900e+00
  -4.1796900e+00
  -4.1357400e+00
  -4.1015600e+00
  -4.1210900e+00
  -4.1650400e+00
  -4.1015600e+00
  -4.1552700e+00
  -4.1357400e+00
  -4.1503900e+00
  -4.1406300e+00
  -4.1357400e+00
  -4.1455100e+00
  -4.1748000e+00
  -4.0722700e+00
  -4.1601600e+00
  -4.1650400e+00
  -4.1113300e+00
  -4.1259800e+00
  -4.1503900e+00
  -4.1455100e+00
  -4.1015600e+00
  -4.1113300e+00
  -4.1650400e+00
  -4.1455100e+00
  -4.0625000e+00
  -4.1699200e+00
  -4.1357400e+00
  -4.1650400e+00
  -4.1503900e+00
  -4.1845700e+00
  -4.0966800e+00
  -4.1357400e+00
  -4.1748000e+00
  -4.1601600e+00
  -4.1357400e+00
  -4.1113300e+00
  -4.1894500e+00
  -4.1259800e+00
  -4.1357400e+00
  -4.1406300e+00
  -4.1552700e+00
  -4.1015600e+00
  -4.0966800e+00
  -4.1943400e+00
  -4.1650400e+00
  -4.1601600e+00
  -4.1796900e+00
  -4.1894500e+00
  -4.1064500e+00
  -4.1210900e+00
  -4.1796900e+00
  -4.1503900e+00
  -4.1210900e+00
  -4.0966800e+00
  -4.1748000e+00
  -4.1113300e+00
  -4.1455100e+00
  -4.1455100e+00
  -4.1357400e+00
  -4.1357400e+00
  -4.1406300e+00
  -4.2089800e+00
  -4.1162100e+00
  -4.1064500e+00
  -4.1503900e+00
  -4.1308600e+00
  -4.1455100e+00
  -4.1162100e+00
  -4.1845700e+00
  -4.1406300e+00
  -4.1162100e+00
  -4.1406300e+00
  -4.1406300e+00
  -4.1259800e+00
  -4.0966800e+00
  -4.1552700e+00
  -4.1503900e+00
  -4.1210900e+00
  -4.1357400e+00
  -4.1894500e+00
  -4.1357400e+00
  -4.1503900e+00
  -4.1406300e+00
  -4.1357400e+00
  -4.1064500e+00
  -4.1259800e+00
  -4.1699200e+00
  -4.1210900e+00
  -4.1162100e+00
  -4.1601600e+00
  -4.1699200e+00
  -4.1113300e+00
  -4.0625000e+00
  -4.1552700e+00
  -4.1162100e+00
  -4.1308600e+00
  -4.1162100e+00
  -4.2041000e+00
  -4.1113300e+00
  -4.1015600e+00
  -4.1552700e+00
  -4.1406300e+00
  -4.1308600e+00
  -4.0918000e+00
  -4.1699200e+00
  -4.1259800e+00
  -4.1210900e+00
  -4.1455100e+00
  -4.1064500e+00
  -4.1162100e+00
  -4.1406300e+00
  -4.1845700e+00
  -4.1015600e+00
  -4.1455100e+00
  -4.1503900e+00
  -4.1601600e+00
  -4.1357400e+00
  -4.1308600e+00
  -4.1796900e+00
  -4.1503900e+00
  -4.0966800e+00
  -4.1357400e+00
  -4.1552700e+00
  -4.1699200e+00
  -4.0918000e+00
  -4.1650400e+00
  -4.1650400e+00
  -4.1455100e+00
  -4.1259800e+00
  -4.1748000e+00
  -4.1552700e+00
  -4.1308600e+00
  -4.1503900e+00
  -4.1699200e+00
  -4.1357400e+00
  -4.1113300e+00
  -4.1455100e+00
  -4.1406300e+00
  -4.1015600e+00
  -4.1162100e+00
  -4.1845700e+00
  -4.1259800e+00
  -4.1113300e+00
  -4.1455100e+00
  -4.1552700e+00
  -4.1406300e+00
  -4.1503900e+00
  -4.1601600e+00
  -4.1113300e+00
  -4.1162100e+00
  -4.1601600e+00
  -4.1455100e+00
  -4.1113300e+00
  -4.1259800e+00
  -4.1650400e+00
  -4.1210900e+00
  -4.1552700e+00
  -4.1699200e+00
  -4.1601600e+00
  -4.0820300e+00
  -4.1259800e+00
  -4.1552700e+00
  -4.1601600e+00
  -4.1503900e+00
  -4.1406300e+00
  -4.1650400e+00
  -4.1113300e+00
  -4.1162100e+00
  -4.1601600e+00
  -4.1552700e+00
  -4.1210900e+00
  -4.0918000e+00
  -4.1699200e+00
  -4.1259800e+00
  -4.1308600e+00
  -4.1357400e+00
  -4.1259800e+00
  -4.1357400e+00
  -4.1162100e+00
  -4.1357400e+00
  -4.1357400e+00
  -4.1503900e+00
  -4.1308600e+00
  -4.1406300e+00
  -4.1308600e+00
  -4.1210900e+00
  -4.1796900e+00
  -4.1162100e+00
  -4.1357400e+00
  -4.1357400e+00
  -4.1357400e+00
  -4.1503900e+00
  -4.1015600e+00
  -4.1699200e+00
  -4.1210900e+00
  -4.1015600e+00
  -4.0966800e+00
  -4.1601600e+00
  -4.1503900e+00
  -4.1406300e+00
  -4.1503900e+00
  -4.1503900e+00
  -4.1259800e+00
  -4.1015600e+00
  -4.1796900e+00
  -4.1357400e+00
  -4.1259800e+00
  -4.1406300e+00
  -4.1406300e+00
  -4.1064500e+00
  -4.1552700e+00
  -4.1748000e+00
  -4.1552700e+00
  -4.1406300e+00
  -4.1503900e+00
  -4.1455100e+00
  -4.1357400e+00
  -4.1259800e+00
  -4.1503900e+00
  -4.1552700e+00
  -4.0966800e+00
  -4.1162100e+00
  -4.1552700e+00
  -4.1113300e+00
  -4.1259800e+00
  -4.0771500e+00
  -4.1259800e+00
  -4.1455100e+00
  -4.1015600e+00
  -4.1503900e+00
  -4.1650400e+00
  -4.1308600e+00
  -4.1064500e+00
  -4.1601600e+00
  -4.1210900e+00
  -4.1015600e+00
  -4.1601600e+00
  -4.1210900e+00
  -4.0869100e+00
  -4.0966800e+00
  -4.1406300e+00
  -4.0527300e+00
  -4.1210900e+00
  -4.1503900e+00
  -4.1308600e+00
  -4.1406300e+00
  -4.1064500e+00
  -4.1162100e+00
  -4.0820300e+00
  -4.0966800e+00
  -4.1064500e+00
  -4.1259800e+00
  -4.1113300e+00
  -4.0966800e+00
  -4.1455100e+00
  -4.0869100e+00
  -4.0820300e+00
  -4.0576200e+00
  -4.1650400e+00
  -4.1259800e+00
  -4.0478500e+00
  -4.1455100e+00
  -4.1308600e+00
  -4.0625000e+00
  -4.0380900e+00
  -4.1113300e+00
  -4.1064500e+00
  -4.0722700e+00
  -4.1210900e+00
  -4.1162100e+00
  -4.0820300e+00
  -4.0625000e+00
  -4.1357400e+00
  -4.0722700e+00
  -4.0673800e+00
  -4.1064500e+00
  -4.0625000e+00
  -4.0918000e+00
  -4.0625000e+00
  -4.1650400e+00
  -4.0966800e+00
  -4.0625000e+00
  -4.0820300e+00
  -4.1113300e+00
  -4.1064500e+00
  -4.0576200e+00
  -4.0966800e+00
  -4.0722700e+00
  -4.0527300e+00
  -4.0673800e+00
  -4.1064500e+00
  -4.0576200e+00
  -4.0673800e+00
  -4.1259800e+00
  -4.1259800e+00
  -4.0478500e+00
  -4.1210900e+00
  -4.1210900e+00
  -4.1162100e+00
  -4.1064500e+00
  -4.0966800e+00
  -4.1015600e+00
  -4.0820300e+00
  -4.0625000e+00
  -4.1064500e+00
  -4.1064500e+00
  -4.0869100e+00
  -4.0576200e+00
  -4.1162100e+00
  -4.0625000e+00
  -4.0625000e+00
  -4.0625000e+00
  -4.1064500e+00
  -4.0869100e+00
  -4.1064500e+00
  -4.1357400e+00
  -4.1064500e+00
  -4.0722700e+00
  -4.1064500e+00
  -4.1210900e+00
  -4.0820300e+00
  -4.0869100e+00
  -4.1357400e+00
  -4.1064500e+00
  -4.0380900e+00
  -4.0429700e+00
  -4.1455100e+00
  -4.0429700e+00
  -4.1064500e+00
  -4.1162100e+00
  -4.1455100e+00
  -4.1308600e+00
  -4.0918000e+00
  -4.1552700e+00
  -4.1113300e+00
  -4.1015600e+00
  -4.1113300e+00
  -4.0966800e+00
  -4.0918000e+00
  -4.1015600e+00
  -4.1210900e+00
  -4.1064500e+00
  -4.0918000e+00
  -4.1015600e+00
  -4.1308600e+00
  -4.1064500e+00
  -4.1308600e+00
  -4.1796900e+00
  -4.0771500e+00
  -4.0820300e+00
  -4.1113300e+00
  -4.1357400e+00
  -4.1064500e+00
  -4.0966800e+00
  -4.1259800e+00
  -4.0966800e+00
  -4.0918000e+00
  -4.0771500e+00
  -4.1796900e+00
  -4.1113300e+00
  -4.1064500e+00
  -4.1259800e+00
  -4.1015600e+00
  -4.0869100e+00
  -4.1162100e+00
  -4.1308600e+00
  -4.1357400e+00
  -4.1113300e+00
  -4.1113300e+00
  -4.1259800e+00
  -4.0966800e+00
  -4.0820300e+00
  -4.1601600e+00
  -4.1113300e+00
  -4.1064500e+00
  -4.1113300e+00
  -4.1455100e+00
  -4.0771500e+00
  -4.1162100e+00
  -4.1552700e+00
  -4.1699200e+00
  -4.0771500e+00
  -4.1015600e+00
  -4.1552700e+00
  -4.1406300e+00
  -4.0966800e+00
  -4.1503900e+00
  -4.1406300e+00
  -4.1113300e+00
  -4.0918000e+00
  -4.1406300e+00
  -4.0966800e+00
  -4.1503900e+00
  -4.0722700e+00
  -4.1601600e+00
  -4.1406300e+00
  -4.1552700e+00
  -4.1357400e+00
  -4.1552700e+00
  -4.1308600e+00
  -4.1308600e+00
  -4.1455100e+00
  -4.1259800e+00
  -4.0918000e+00
  -4.1455100e+00
  -4.1259800e+00
  -4.1113300e+00
  -4.1210900e+00
  -4.1748000e+00
  -4.1259800e+00
  -4.1162100e+00
  -4.0918000e+00
  -4.1699200e+00
  -4.1503900e+00
  -4.1113300e+00
  -4.1455100e+00
  -4.1064500e+00
  -4.1210900e+00
  -4.1308600e+00
  -4.1259800e+00
  -4.1064500e+00
  -4.1357400e+00
  -4.1748000e+00
  -4.1162100e+00
  -4.1162100e+00
  -4.1113300e+00
  -4.0918000e+00
  -4.1113300e+00
  -4.1308600e+00
  -4.1455100e+00
  -4.0722700e+00
  -4.0673800e+00
  -4.1259800e+00
  -4.1357400e+00
  -4.1113300e+00
  -4.1113300e+00
  -4.1308600e+00
  -4.1162100e+00
  -4.1113300e+00
  -4.1113300e+00
  -4.1455100e+00
  -4.1210900e+00
  -4.1015600e+00
  -4.0820300e+00
  -4.1357400e+00
  -4.1113300e+00
  -4.1113300e+00
  -4.1308600e+00
  -4.1308600e+00
  -4.1162100e+00
  -4.0820300e+00
  -4.1357400e+00
  -4.1162100e+00
  -4.0918000e+00
  -4.1113300e+00
  -4.0966800e+00
  -4.1210900e+00
  -4.0966800e+00
  -4.1308600e+00
  -4.1259800e+00
  -4.0527300e+00
  -4.1308600e+00
  -4.1455100e+00
  -4.0576200e+00
  -4.0722700e+00
  -4.1699200e+00
  -4.0673800e+00
  -4.0625000e+00
  -4.0918000e+00
  -4.1064500e+00
  -4.0820300e+00
  -4.0673800e+00
  -4.1064500e+00
  -4.0722700e+00
  -4.0527300e+00
  -4.0722700e+00
  -4.1113300e+00
  -4.0869100e+00
  -4.0673800e+00
  -4.1210900e+00
  -4.0918000e+00
  -4.0771500e+00
  -4.0234400e+00
  -4.1162100e+00
  -4.0625000e+00
  -4.0673800e+00
  -4.0625000e+00
  -4.0722700e+00
  -4.0576200e+00
  -4.0429700e+00
  -4.0918000e+00
  -4.0673800e+00
  -3.9941400e+00
  -4.0625000e+00
  -4.0966800e+00
  -4.0380900e+00
  -3.9941400e+00
  -4.0673800e+00
  -4.0380900e+00
  -3.9794900e+00
  -3.9990200e+00
  -4.0673800e+00
  -4.0234400e+00
  -3.9892600e+00
  -4.0039100e+00
  -3.9990200e+00
  -3.9941400e+00
  -3.9843800e+00
  -3.9990200e+00
  -3.9550800e+00
  -3.9843800e+00
  -3.9892600e+00
  -3.9941400e+00
  -3.9404300e+00
  -3.9599600e+00
  -3.9843800e+00
  -3.9257800e+00
  -3.9550800e+00
  -3.9111300e+00
  -3.9453100e+00
  -3.8867200e+00
  -3.8769500e+00
  -3.8867200e+00
  -3.9111300e+00
  -3.8720700e+00
  -3.8232400e+00
  -3.9160200e+00
  -3.8525400e+00
  -3.8232400e+00
  -3.8378900e+00
  -3.8671900e+00
  -3.8281300e+00
  -3.7890600e+00
  -3.8818400e+00
  -3.8378900e+00
  -3.7793000e+00
  -3.7988300e+00
  -3.8232400e+00
  -3.7890600e+00
  -3.7841800e+00
  -3.7939500e+00
  -3.7890600e+00
  -3.7939500e+00
  -3.7109400e+00
  -3.7841800e+00
  -3.7207000e+00
  -3.7500000e+00
  -3.7500000e+00
  -3.7207000e+00
  -3.6767600e+00
  -3.7109400e+00
  -3.7255900e+00
  -3.7207000e+00
  -3.6718800e+00
  -3.6962900e+00
  -3.7011700e+00
  -3.6816400e+00
  -3.6767600e+00
  -3.7158200e+00
  -3.6816400e+00
  -3.6962900e+00
  -3.6669900e+00
  -3.6767600e+00
  -3.6621100e+00
  -3.6425800e+00
  -3.7011700e+00
  -3.7060500e+00
  -3.6572300e+00
  -3.6279300e+00
  -3.7060500e+00
  -3.6328100e+00
  -3.6474600e+00
  -3.6621100e+00
  -3.6767600e+00
  -3.6377000e+00
  -3.6328100e+00
  -3.6816400e+00
  -3.5986300e+00
  -3.6181600e+00
  -3.6523400e+00
  -3.7011700e+00
  -3.6377000e+00
  -3.5986300e+00
  -3.6474600e+00
  -3.6425800e+00
  -3.6523400e+00
  -3.6474600e+00
  -3.7255900e+00
  -3.6669900e+00
  -3.6279300e+00
  -3.6914100e+00
  -3.6572300e+00
  -3.6572300e+00
  -3.6816400e+00
  -3.7109400e+00
  -3.6816400e+00
  -3.6425800e+00
  -3.6377000e+00
  -3.7109400e+00
  -3.6474600e+00
  -3.6914100e+00
  -3.7304700e+00
  -3.6865200e+00
  -3.6865200e+00
  -3.6816400e+00
  -3.7402300e+00
  -3.7109400e+00
  -3.6767600e+00
  -3.7304700e+00
  -3.7060500e+00
  -3.7011700e+00
  -3.6523400e+00
  -3.7744100e+00
  -3.7207000e+00
  -3.7353500e+00
  -3.7744100e+00
  -3.7158200e+00
  -3.7255900e+00
  -3.7109400e+00
  -3.7695300e+00
  -3.7207000e+00
  -3.6962900e+00
  -3.7402300e+00
  -3.7597700e+00
  -3.7255900e+00
  -3.7255900e+00
  -3.7500000e+00
  -3.7744100e+00
  -3.7255900e+00
  -3.7060500e+00
  -3.7646500e+00
  -3.7353500e+00
  -3.6914100e+00
  -3.7402300e+00
  -3.7500000e+00
  -3.7255900e+00
  -3.7255900e+00
  -3.7695300e+00
  -3.7255900e+00
  -3.7158200e+00
  -3.7548800e+00
  -3.7402300e+00
  -3.6914100e+00
  -3.6962900e+00
  -3.7402300e+00
  -3.7060500e+00
  -3.6816400e+00
  -3.6962900e+00
  -3.6914100e+00
  -3.6865200e+00
  -3.6718800e+00
  -3.7207000e+00
  -3.6962900e+00
  -3.6474600e+00
  -3.6621100e+00
  -3.6865200e+00
  -3.6621100e+00
  -3.6572300e+00
  -3.6279300e+00
  -3.6816400e+00
  -3.6865200e+00
  -3.6621100e+00
  -3.6816400e+00
  -3.6328100e+00
  -3.6377000e+00
  -3.6572300e+00
  -3.6621100e+00
  -3.6328100e+00
  -3.5839800e+00
  -3.6328100e+00
  -3.6084000e+00
  -3.5742200e+00
  -3.5986300e+00
  -3.5986300e+00
  -3.5937500e+00
  -3.5839800e+00
  -3.6132800e+00
  -3.5986300e+00
  -3.5644500e+00
  -3.5888700e+00
  -3.5498000e+00
  -3.5156300e+00
  -3.5791000e+00
  -3.5351600e+00
  -3.5546900e+00
  -3.5058600e+00
  -3.5205100e+00
  -3.5693400e+00
  -3.5302700e+00
  -3.5058600e+00
  -3.4716800e+00
  -3.5253900e+00
  -3.4912100e+00
  -3.4570300e+00
  -3.5302700e+00
  -3.4765600e+00
  -3.4716800e+00
  -3.4228500e+00
  -3.5009800e+00
  -3.4277300e+00
  -3.4472700e+00
  -3.4716800e+00
  -3.4423800e+00
  -3.4277300e+00
  -3.3740200e+00
  -3.4375000e+00
  -3.4277300e+00
  -3.4228500e+00
  -3.4033200e+00
  -3.3935500e+00
  -3.3496100e+00
  -3.3398400e+00
  -3.4277300e+00
  -3.3593800e+00
  -3.3154300e+00
  -3.3691400e+00
  -3.3691400e+00
  -3.3496100e+00
  -3.3056600e+00
  -3.3642600e+00
  -3.3398400e+00
  -3.3203100e+00
  -3.3007800e+00
  -3.3398400e+00
  -3.2763700e+00
  -3.2714800e+00
  -3.3203100e+00
  -3.2910200e+00
  -3.2373000e+00
  -3.2812500e+00
  -3.2812500e+00
  -3.2031300e+00
  -3.2324200e+00
  -3.2714800e+00
  -3.1933600e+00
  -3.2226600e+00
  -3.2373000e+00
  -3.2226600e+00
  -3.1884800e+00
  -3.1787100e+00
  -3.1689500e+00
  -3.1787100e+00
  -3.1298800e+00
  -3.1640600e+00
  -3.1738300e+00
  -3.1201200e+00
  -3.1005900e+00
  -3.1201200e+00
  -3.1738300e+00
  -3.1103500e+00
  -3.0419900e+00
  -3.1054700e+00
  -3.1054700e+00
  -3.0566400e+00
  -3.0419900e+00
  -3.1201200e+00
  -3.0468800e+00
  -2.9834000e+00
  -3.0419900e+00
  -3.0371100e+00
  -3.0175800e+00
  -2.9541000e+00
  -3.0224600e+00
  -3.0029300e+00
  -2.9199200e+00
  -2.9980500e+00
  -3.0127000e+00
  -2.9541000e+00
  -2.9443400e+00
  -2.9589800e+00
  -2.9443400e+00
  -2.9101600e+00
  -2.9052700e+00
  -2.9296900e+00
  -2.9003900e+00
  -2.8564500e+00
  -2.9003900e+00
  -2.8710900e+00
  -2.8710900e+00
  -2.8515600e+00
  -2.8710900e+00
  -2.8173800e+00
  -2.8173800e+00
  -2.8466800e+00
  -2.8564500e+00
  -2.8076200e+00
  -2.7929700e+00
  -2.8515600e+00
  -2.7880900e+00
  -2.7832000e+00
  -2.7539100e+00
  -2.7783200e+00
  -2.7783200e+00
  -2.7685500e+00
  -2.7880900e+00
  -2.7539100e+00
  -2.7490200e+00
  -2.7294900e+00
  -2.7685500e+00
  -2.7343800e+00
  -2.7294900e+00
  -2.7246100e+00
  -2.7734400e+00
  -2.6953100e+00
  -2.6904300e+00
  -2.7539100e+00
  -2.7148400e+00
  -2.6806600e+00
  -2.6953100e+00
  -2.7050800e+00
  -2.6806600e+00
  -2.6367200e+00
  -2.7392600e+00
  -2.6562500e+00
  -2.6660200e+00
  -2.6220700e+00
  -2.7050800e+00
  -2.6611300e+00
  -2.6123000e+00
  -2.6464800e+00
  -2.6709000e+00
  -2.6269500e+00
  -2.6171900e+00
  -2.6513700e+00
  -2.6367200e+00
  -2.6074200e+00
  -2.6025400e+00
  -2.6709000e+00
  -2.5537100e+00
  -2.5927700e+00
  -2.6171900e+00
  -2.5927700e+00
  -2.5781300e+00
  -2.5830100e+00
  -2.5634800e+00
  -2.5830100e+00
  -2.5830100e+00
  -2.5976600e+00
  -2.5732400e+00
  -2.5585900e+00
  -2.5439500e+00
  -2.5927700e+00
  -2.5488300e+00
  -2.5097700e+00
  -2.5781300e+00
  -2.5439500e+00
  -2.4951200e+00
  -2.4804700e+00
  -2.5097700e+00
  -2.4902300e+00
  -2.4707000e+00
  -2.5097700e+00
  -2.5146500e+00
  -2.4804700e+00
  -2.4853500e+00
  -2.4707000e+00
  -2.4414100e+00
  -2.4121100e+00
  -2.4072300e+00
  -2.4658200e+00
  -2.4267600e+00
  -2.3925800e+00
  -2.3877000e+00
  -2.4218800e+00
  -2.3486300e+00
  -2.3681600e+00
  -2.4267600e+00
  -2.3730500e+00
  -2.3486300e+00
  -2.3339800e+00
  -2.3632800e+00
  -2.2705100e+00
  -2.2753900e+00
  -2.3486300e+00
  -2.3046900e+00
  -2.2558600e+00
  -2.2851600e+00
  -2.2998000e+00
  -2.2363300e+00
  -2.2168000e+00
  -2.2558600e+00
  -2.2509800e+00
  -2.2314500e+00
  -2.1728500e+00
  -2.2021500e+00
  -2.1826200e+00
  -2.1875000e+00
  -2.1875000e+00
  -2.1630900e+00
  -2.1386700e+00
  -2.1191400e+00
  -2.1630900e+00
  -2.1142600e+00
  -2.0996100e+00
  -2.0752000e+00
  -2.0654300e+00
  -2.0605500e+00
  -2.0556600e+00
  -2.0898400e+00
  -2.0361300e+00
  -2.0410200e+00
  -2.0068400e+00
  -2.0507800e+00
  -2.0166000e+00
  -1.9873000e+00
  -1.9970700e+00
  -1.9628900e+00
  -1.9335900e+00
  -1.9531300e+00
  -1.9775400e+00
  -1.9482400e+00
  -1.9238300e+00
  -1.9677700e+00
  -1.9335900e+00
  -1.8847700e+00
  -1.9238300e+00
  -1.9189500e+00
  -1.8554700e+00
  -1.8554700e+00
  -1.8603500e+00
  -1.8847700e+00
  -1.8652300e+00
  -1.8408200e+00
  -1.8798800e+00
  -1.8164100e+00
  -1.8164100e+00
  -1.8457000e+00
  -1.8408200e+00
  -1.7919900e+00
  -1.7919900e+00
  -1.8310500e+00
  -1.8310500e+00
  -1.7919900e+00
  -1.7724600e+00
  -1.8066400e+00
  -1.7285200e+00
  -1.7334000e+00
  -1.7675800e+00
  -1.7724600e+00
  -1.6894500e+00
  -1.7236300e+00
  -1.7431600e+00
  -1.6992200e+00
  -1.7089800e+00
  -1.7041000e+00
  -1.7187500e+00
  -1.6894500e+00
  -1.6748000e+00
  -1.6894500e+00
  -1.6748000e+00
  -1.6210900e+00
  -1.6357400e+00
  -1.6748000e+00
  -1.6503900e+00
  -1.6552700e+00
  -1.6357400e+00
  -1.6503900e+00
  -1.6113300e+00
  -1.5722700e+00
  -1.6113300e+00
  -1.5869100e+00
  -1.5869100e+00
  -1.5771500e+00
  -1.5429700e+00
  -1.5673800e+00
  -1.5673800e+00
  -1.5478500e+00
  -1.5527300e+00
  -1.5136700e+00
  -1.5234400e+00
  -1.5478500e+00
  -1.5136700e+00
  -1.4697300e+00
  -1.5234400e+00
  -1.4843800e+00
  -1.4257800e+00
  -1.4355500e+00
  -1.4648400e+00
  -1.4306600e+00
  -1.4209000e+00
  -1.4404300e+00
  -1.4111300e+00
  -1.4062500e+00
  -1.3916000e+00
  -1.4404300e+00
  -1.3964800e+00
  -1.3476600e+00
  -1.3769500e+00
  -1.3916000e+00
  -1.3232400e+00
  -1.3134800e+00
  -1.3623000e+00
  -1.3134800e+00
  -1.3232400e+00
  -1.3085900e+00
  -1.3134800e+00
  -1.2841800e+00
  -1.2988300e+00
  -1.3085900e+00
  -1.3134800e+00
  -1.2841800e+00
  -1.2890600e+00
  -1.3232400e+00
  -1.2548800e+00
  -1.2500000e+00
  -1.2744100e+00
  -1.2695300e+00
  -1.2255900e+00
  -1.2207000e+00
  -1.2646500e+00
  -1.2841800e+00
  -1.2451200e+00
  -1.2353500e+00
  -1.2793000e+00
  -1.2402300e+00
  -1.2255900e+00
  -1.2646500e+00
  -1.2451200e+00
  -1.2255900e+00
  -1.2207000e+00
  -1.2500000e+00
  -1.2158200e+00
  -1.2207000e+00
  -1.2304700e+00
  -1.1816400e+00
  -1.1865200e+00
  -1.2158200e+00
  -1.2011700e+00
  -1.2353500e+00
  -1.1962900e+00
  -1.1962900e+00
  -1.2353500e+00
  -1.2207000e+00
  -1.1962900e+00
  -1.2646500e+00
  -1.1962900e+00
  -1.1816400e+00
  -1.2353500e+00
  -1.2353500e+00
  -1.2207000e+00
  -1.2060500e+00
  -1.2500000e+00
  -1.2353500e+00
  -1.1865200e+00
  -1.1767600e+00
  -1.2646500e+00
  -1.2255900e+00
  -1.2207000e+00
  -1.2353500e+00
  -1.1914100e+00
  -1.1865200e+00
  -1.1914100e+00
  -1.2353500e+00
  -1.2011700e+00
  -1.1767600e+00
  -1.1865200e+00
  -1.1767600e+00
  -1.1865200e+00
  -1.1621100e+00
  -1.2158200e+00
  -1.1572300e+00
  -1.1572300e+00
  -1.1767600e+00
  -1.1669900e+00
  -1.1572300e+00
  -1.1523400e+00
  -1.2060500e+00
  -1.1865200e+00
  -1.1474600e+00
  -1.1425800e+00
  -1.1523400e+00
  -1.1474600e+00
  -1.1425800e+00
  -1.1523400e+00
  -1.1669900e+00
  -1.1279300e+00
  -1.1328100e+00
  -1.1328100e+00
  -1.0937500e+00
  -1.1035200e+00
  -1.1035200e+00
  -1.1328100e+00
  -1.1035200e+00
  -1.1279300e+00
  -1.1621100e+00
  -1.1181600e+00
  -1.0839800e+00
  -1.0693400e+00
  -1.1279300e+00
  -1.0888700e+00
  -1.0839800e+00
  -1.1132800e+00
  -1.0742200e+00
  -1.0351600e+00
  -1.0400400e+00
  -1.1230500e+00
  -1.0937500e+00
  -1.0742200e+00
  -1.0791000e+00
  -1.1035200e+00
  -1.0595700e+00
  -1.0742200e+00
  -1.1132800e+00
  -1.0742200e+00
  -1.1035200e+00
  -1.0937500e+00
  -1.1181600e+00
  -1.0693400e+00
  -1.0644500e+00
  -1.1230500e+00
  -1.1035200e+00
  -1.0791000e+00
  -1.0693400e+00
  -1.1621100e+00
  -1.1132800e+00
  -1.0839800e+00
  -1.1425800e+00
  -1.1084000e+00
  -1.1035200e+00
  -1.1181600e+00
  -1.1718800e+00
  -1.1035200e+00
  -1.1279300e+00
  -1.1279300e+00
  -1.1767600e+00
  -1.1474600e+00
  -1.1377000e+00
  -1.2158200e+00
  -1.1621100e+00
  -1.1328100e+00
  -1.2060500e+00
  -1.2207000e+00
  -1.1914100e+00
  -1.1962900e+00
  -1.1914100e+00
  -1.2304700e+00
  -1.2207000e+00
  -1.2207000e+00
  -1.2402300e+00
  -1.2451200e+00
  -1.2158200e+00
  -1.2793000e+00
  -1.2744100e+00
  -1.2402300e+00
  -1.2646500e+00
  -1.3378900e+00
  -1.3037100e+00
  -1.2744100e+00
  -1.3232400e+00
  -1.3183600e+00
  -1.3476600e+00
  -1.3085900e+00
  -1.3623000e+00
  -1.3525400e+00
  -1.3378900e+00
  -1.3476600e+00
  -1.3867200e+00
  -1.3769500e+00
  -1.3916000e+00
  -1.4502000e+00
  -1.4306600e+00
  -1.4013700e+00
  -1.4013700e+00
  -1.5039100e+00
  -1.4550800e+00
  -1.4599600e+00
  -1.5185500e+00
  -1.5380900e+00
  -1.5429700e+00
  -1.5429700e+00
  -1.5869100e+00
  -1.5771500e+00
  -1.5576200e+00
  -1.5771500e+00
  -1.6259800e+00
  -1.6113300e+00
  -1.6259800e+00
  -1.6650400e+00
  -1.6845700e+00
  -1.6894500e+00
  -1.6748000e+00
  -1.7578100e+00
  -1.7675800e+00
  -1.7334000e+00
  -1.7871100e+00
  -1.7724600e+00
  -1.8115200e+00
  -1.8017600e+00
  -1.8408200e+00
  -1.8603500e+00
  -1.8750000e+00
  -1.9238300e+00
  -1.9433600e+00
  -1.9433600e+00
  -1.9287100e+00
  -2.0214800e+00
  -2.0068400e+00
  -1.9970700e+00
  -2.0410200e+00
  -2.0996100e+00
  -2.0800800e+00
  -2.0703100e+00
  -2.1875000e+00
  -2.1240200e+00
  -2.1826200e+00
  -2.1386700e+00
  -2.2460900e+00
  -2.2021500e+00
  -2.2216800e+00
  -2.2607400e+00
  -2.2900400e+00
  -2.2753900e+00
  -2.2753900e+00
  -2.3779300e+00
  -2.3291000e+00
  -2.3681600e+00
  -2.4121100e+00
  -2.4511700e+00
  -2.4316400e+00
  -2.4267600e+00
  -2.5341800e+00
  -2.5000000e+00
  -2.5097700e+00
  -2.5195300e+00
  -2.5683600e+00
  -2.5585900e+00
  -2.5634800e+00
  -2.6074200e+00
  -2.5927700e+00
  -2.5927700e+00
  -2.6464800e+00
  -2.6904300e+00
  -2.6416000e+00
  -2.6660200e+00
  -2.7441400e+00
  -2.7002000e+00
  -2.7246100e+00
  -2.7636700e+00
  -2.7734400e+00
  -2.7929700e+00
  -2.7734400e+00
  -2.7978500e+00
  -2.8271500e+00
  -2.8271500e+00
  -2.8222700e+00
  -2.8857400e+00
  -2.8613300e+00
  -2.8662100e+00
  -2.9003900e+00
  -2.8906300e+00
  -2.9052700e+00
  -2.8710900e+00
  -2.9443400e+00
  -2.9492200e+00
  -2.9394500e+00
  -2.9052700e+00
  -2.9882800e+00
  -2.9541000e+00
  -2.9492200e+00
  -2.9980500e+00
  -3.0127000e+00
  -2.9931600e+00
  -2.9248000e+00
  -3.0127000e+00
  -3.0127000e+00
  -2.9882800e+00
  -3.0078100e+00
  -3.0761700e+00
  -3.0615200e+00
  -2.9882800e+00
  -3.1054700e+00
  -3.0908200e+00
  -3.0761700e+00
  -3.0468800e+00
  -3.1103500e+00
  -3.0615200e+00
  -3.0859400e+00
  -3.1445300e+00
  -3.0761700e+00
  -3.0712900e+00
  -3.0468800e+00
  -3.1347700e+00
  -3.1347700e+00
  -3.1250000e+00
  -3.1347700e+00
  -3.1543000e+00
  -3.1298800e+00
  -3.1250000e+00
  -3.1787100e+00
  -3.1347700e+00
  -3.1201200e+00
  -3.1201200e+00
  -3.1591800e+00
  -3.1250000e+00
  -3.1152300e+00
  -3.1982400e+00
  -3.2128900e+00
  -3.1884800e+00
  -3.1835900e+00
  -3.1640600e+00
  -3.1396500e+00
  -3.1591800e+00
  -3.2275400e+00
  -3.2080100e+00
  -3.2128900e+00
  -3.1543000e+00
  -3.2519500e+00
  -3.2128900e+00
  -3.1982400e+00
  -3.2470700e+00
  -3.2421900e+00
  -3.2031300e+00
  -3.1933600e+00
  -3.2763700e+00
  -3.2421900e+00
  -3.2080100e+00
  -3.2226600e+00
  -3.2812500e+00
  -3.2373000e+00
  -3.2226600e+00
  -3.3056600e+00
  -3.2861300e+00
  -3.2617200e+00
  -3.2666000e+00
  -3.2910200e+00
  -3.2519500e+00
  -3.2373000e+00
  -3.2812500e+00
  -3.3007800e+00
  -3.2519500e+00
  -3.3007800e+00
  -3.3544900e+00
  -3.3300800e+00
  -3.2714800e+00
  -3.3056600e+00
  -3.3447300e+00
  -3.3252000e+00
  -3.2519500e+00
  -3.3544900e+00
  -3.3544900e+00
  -3.3252000e+00
  -3.3252000e+00
  -3.3349600e+00
  -3.3349600e+00
  -3.3056600e+00
  -3.3398400e+00
  -3.3593800e+00
  -3.3007800e+00
  -3.2910200e+00
  -3.3398400e+00
  -3.3105500e+00
  -3.3447300e+00
  -3.3691400e+00
  -3.3398400e+00
  -3.3203100e+00
  -3.3496100e+00
  -3.3935500e+00
  -3.3886700e+00
  -3.3349600e+00
  -3.3691400e+00
  -3.3935500e+00
  -3.3642600e+00
  -3.3447300e+00
  -3.3984400e+00
  -3.3691400e+00
  -3.3740200e+00
  -3.3593800e+00
  -3.4472700e+00
  -3.3984400e+00
  -3.3496100e+00
  -3.4521500e+00
  -3.4033200e+00
  -3.4082000e+00
  -3.3886700e+00
  -3.4619100e+00
  -3.4228500e+00
  -3.4130900e+00
  -3.4228500e+00
  -3.4277300e+00
  -3.4082000e+00
  -3.4423800e+00
  -3.5058600e+00
  -3.4619100e+00
  -3.3984400e+00
  -3.4619100e+00
  -3.4521500e+00
  -3.4277300e+00
  -3.4814500e+00
  -3.4814500e+00
  -3.4863300e+00
  -3.4765600e+00
  -3.4570300e+00
  -3.4960900e+00
  -3.4619100e+00
  -3.4716800e+00
  -3.4960900e+00
  -3.4960900e+00
  -3.5351600e+00
  -3.5058600e+00
  -3.5888700e+00
  -3.5058600e+00
  -3.5156300e+00
  -3.5302700e+00
  -3.5742200e+00
  -3.5791000e+00
  -3.5205100e+00
  -3.5888700e+00
  -3.5791000e+00
  -3.5742200e+00
  -3.5693400e+00
  -3.5888700e+00
  -3.5839800e+00
  -3.5937500e+00
  -3.6425800e+00
  -3.6132800e+00
  -3.5644500e+00
  -3.6035200e+00
  -3.6279300e+00
  -3.6523400e+00
  -3.6328100e+00
  -3.6816400e+00
  -3.6425800e+00
  -3.6523400e+00
  -3.6669900e+00
  -3.7353500e+00
  -3.7060500e+00
  -3.6865200e+00
  -3.7060500e+00
  -3.7207000e+00
  -3.7158200e+00
  -3.6914100e+00
  -3.7548800e+00
  -3.7451200e+00
  -3.7646500e+00
  -3.7402300e+00
  -3.8037100e+00
  -3.8037100e+00
  -3.7988300e+00
  -3.8525400e+00
  -3.8232400e+00
  -3.7988300e+00
  -3.7988300e+00
  -3.8330100e+00
  -3.8232400e+00
  -3.7939500e+00
  -3.8232400e+00
  -3.8281300e+00
  -3.8378900e+00
  -3.8574200e+00
  -3.8964800e+00
  -3.8720700e+00
  -3.8720700e+00
  -3.8867200e+00
  -3.8867200e+00
  -3.8964800e+00
  -3.8769500e+00
  -3.9453100e+00
  -3.9160200e+00
  -3.8964800e+00
  -3.8867200e+00
  -3.9550800e+00
  -3.9160200e+00
  -3.8867200e+00
  -3.9257800e+00
  -3.9648400e+00
  -3.9404300e+00
  -3.9062500e+00
  -3.9990200e+00
  -3.9794900e+00
  -3.9306600e+00
  -3.9355500e+00
  -3.9404300e+00
  -3.9599600e+00
  -3.9453100e+00
  -4.0185500e+00
  -3.9550800e+00
  -3.9599600e+00
  -3.9502000e+00
  -4.0136700e+00
  -3.9599600e+00
  -3.9794900e+00
  -4.0527300e+00
  -3.9843800e+00
  -3.9404300e+00
  -3.9599600e+00
  -4.0625000e+00
  -3.9794900e+00
  -3.9355500e+00
  -4.0478500e+00
  -4.0429700e+00
  -4.0087900e+00
  -3.9697300e+00
  -4.0234400e+00
  -4.0136700e+00
  -3.9941400e+00
  -4.0234400e+00
  -4.0380900e+00
  -4.0039100e+00
  -4.0039100e+00
  -4.0478500e+00
  -4.0234400e+00
  -3.9892600e+00
  -3.9990200e+00
  -4.0429700e+00
  -4.0039100e+00
  -3.9794900e+00
  -4.0478500e+00
  -4.0087900e+00
  -3.9990200e+00
  -3.9892600e+00
  -4.0576200e+00
  -3.9941400e+00
  -4.0039100e+00
  -4.0283200e+00
  -4.0087900e+00
  -4.0234400e+00
  -3.9599600e+00
  -4.0869100e+00
  -4.0673800e+00
  -4.0478500e+00
  -4.0478500e+00
  -4.0527300e+00
  -4.0039100e+00
  -3.9990200e+00
  -4.0625000e+00
  -4.0283200e+00
  -4.0136700e+00
  -4.0185500e+00
  -4.0625000e+00
  -4.0087900e+00
  -4.0332000e+00
  -4.0136700e+00
  -4.0332000e+00
  -3.9794900e+00
  -4.0429700e+00
  -4.0380900e+00
  -4.0283200e+00
  -4.0429700e+00
  -4.0429700e+00
  -4.0380900e+00
  -4.0332000e+00
  -4.0087900e+00
  -4.0576200e+00
  -4.0527300e+00
  -4.0380900e+00
  -4.0771500e+00
  -4.0625000e+00
  -4.0722700e+00
  -3.9892600e+00
  -4.0576200e+00
  -4.0869100e+00
  -4.0185500e+00
  -4.0527300e+00
  -4.0869100e+00
  -4.0576200e+00
  -4.0332000e+00
  -4.0820300e+00
  -4.0576200e+00
  -4.0576200e+00
  -4.0283200e+00
  -4.0966800e+00
  -4.0576200e+00
  -4.0039100e+00
  -4.0625000e+00
  -4.0576200e+00
  -4.0429700e+00
  -4.0332000e+00
  -4.0869100e+00
  -4.0576200e+00
  -4.0625000e+00
  -4.0332000e+00
  -4.1015600e+00
  -4.0625000e+00
  -4.0283200e+00
  -4.0673800e+00
  -4.0527300e+00
  -4.0039100e+00
  -3.9843800e+00
  -4.0332000e+00
  -3.9892600e+00
  -4.0039100e+00
  -3.9746100e+00
  -3.9892600e+00
  -4.0039100e+00
  -3.9990200e+00
  -4.0625000e+00
  -3.9990200e+00
  -3.9550800e+00
  -3.9453100e+00
  -4.0185500e+00
  -3.9941400e+00
  -3.9599600e+00
  -3.9843800e+00
  -3.9843800e+00
  -3.9355500e+00
  -3.9502000e+00
  -3.9941400e+00
  -3.9502000e+00
  -3.8818400e+00
  -3.9648400e+00
  -3.9794900e+00
  -3.9502000e+00
  -3.8964800e+00
  -3.9404300e+00
  -3.9013700e+00
  -3.8574200e+00
  -3.9111300e+00
  -3.9013700e+00
  -3.8964800e+00
  -3.8574200e+00
  -3.9062500e+00
  -3.8964800e+00
  -3.8720700e+00
  -3.8769500e+00
  -3.8671900e+00
  -3.8183600e+00
  -3.8671900e+00
  -3.8769500e+00
  -3.8476600e+00
  -3.8232400e+00
  -3.7988300e+00
  -3.8867200e+00
  -3.8720700e+00
  -3.8232400e+00
  -3.8476600e+00
  -3.8378900e+00
  -3.8232400e+00
  -3.7988300e+00
  -3.8525400e+00
  -3.8085900e+00
  -3.7793000e+00
  -3.8085900e+00
  -3.8134800e+00
  -3.7939500e+00
  -3.7890600e+00
  -3.8574200e+00
  -3.8232400e+00
  -3.7695300e+00
  -3.7841800e+00
  -3.8378900e+00
  -3.7451200e+00
  -3.7744100e+00
  -3.7988300e+00
  -3.7890600e+00
  -3.7646500e+00
  -3.7744100e+00
  -3.7890600e+00
  -3.7841800e+00
  -3.7500000e+00
  -3.7988300e+00
  -3.7890600e+00
  -3.7695300e+00
  -3.7402300e+00
  -3.8085900e+00
  -3.8134800e+00
  -3.7597700e+00
  -3.7890600e+00
  -3.8037100e+00
  -3.7646500e+00
  -3.7793000e+00
  -3.8134800e+00
  -3.8085900e+00
  -3.7988300e+00
  -3.7939500e+00
  -3.8378900e+00
  -3.8232400e+00
  -3.7695300e+00
  -3.8183600e+00
  -3.8623000e+00
  -3.8427700e+00
  -3.8183600e+00
  -3.8378900e+00
  -3.8427700e+00
  -3.8085900e+00
  -3.8525400e+00
  -3.8720700e+00
  -3.8476600e+00
  -3.8232400e+00
  -3.8964800e+00
  -3.8720700e+00
  -3.8330100e+00
  -3.8623000e+00
  -3.8671900e+00
  -3.9062500e+00
  -3.8818400e+00
  -3.9257800e+00
  -3.8769500e+00
  -3.8818400e+00
  -3.9404300e+00
  -3.9111300e+00
  -3.9160200e+00
  -3.8916000e+00
  -3.9599600e+00
  -3.9257800e+00
  -3.9306600e+00
  -3.9257800e+00
  -3.9648400e+00
  -3.9404300e+00
  -3.9502000e+00
  -3.9404300e+00
  -3.9697300e+00
  -3.9648400e+00
  -3.9306600e+00
  -3.9746100e+00
  -3.9941400e+00
  -3.9941400e+00
  -4.0234400e+00
  -4.0185500e+00
  -3.9892600e+00
  -3.9794900e+00
  -4.0478500e+00
  -4.0234400e+00
  -4.0234400e+00
  -4.0283200e+00
  -4.0478500e+00
  -4.0380900e+00
  -4.0478500e+00
  -4.0478500e+00
  -4.0918000e+00
  -4.0234400e+00
  -4.0185500e+00
  -4.1210900e+00
  -4.0722700e+00
  -4.0576200e+00
  -4.0673800e+00
  -4.0820300e+00
  -4.0673800e+00
  -4.0429700e+00
  -4.0966800e+00
  -4.0722700e+00
  -4.0820300e+00
  -4.0869100e+00
  -4.1455100e+00
  -4.0625000e+00
  -4.0820300e+00
  -4.1015600e+00
  -4.1357400e+00
  -4.1308600e+00
  -4.0918000e+00
  -4.1015600e+00
  -4.0869100e+00
  -4.1064500e+00
  -4.1455100e+00
  -4.1210900e+00
  -4.1162100e+00
  -4.1015600e+00
  -4.1357400e+00
  -4.1308600e+00
  -4.1064500e+00
  -4.0966800e+00
  -4.1064500e+00
  -4.1210900e+00
  -4.1064500e+00
  -4.1601600e+00
  -4.1015600e+00
  -4.1259800e+00
  -4.1308600e+00
  -4.1552700e+00
  -4.1308600e+00
  -4.1357400e+00
  -4.1650400e+00
  -4.1210900e+00
  -4.1113300e+00
  -4.1162100e+00
  -4.1699200e+00
  -4.1162100e+00
  -4.1113300e+00
  -4.1210900e+00
  -4.1357400e+00
  -4.1650400e+00
  -4.1503900e+00
  -4.1601600e+00
  -4.1113300e+00
  -4.1357400e+00
  -4.0966800e+00
  -4.1748000e+00
  -4.1455100e+00
  -4.1064500e+00
  -4.1552700e+00
  -4.1259800e+00
  -4.1406300e+00
  -4.1210900e+00
  -4.1796900e+00
  -4.1259800e+00
  -4.1406300e+00
  -4.1992200e+00
  -4.1894500e+00
  -4.1015600e+00
  -4.1064500e+00
  -4.1699200e+00
  -4.1601600e+00
  -4.1406300e+00
  -4.1650400e+00
  -4.1699200e+00
  -4.1162100e+00
  -4.1210900e+00
  -4.1894500e+00
  -4.1357400e+00
  -4.1113300e+00
  -4.1259800e+00
  -4.1015600e+00
  -4.1601600e+00
  -4.1308600e+00
  -4.2041000e+00
  -4.1601600e+00
  -4.1455100e+00
  -4.1162100e+00
  -4.1552700e+00
  -4.1552700e+00
  -4.1308600e+00
  -4.1503900e+00
  -4.1601600e+00
  -4.1406300e+00
  -4.1308600e+00
  -4.1894500e+00
  -4.1308600e+00
  -4.1259800e+00
  -4.1796900e+00
  -4.1650400e+00
  -4.1357400e+00
  -4.1503900e+00
  -4.1894500e+00
  -4.1503900e+00
  -4.1406300e+00
  -4.1796900e+00
  -4.1796900e+00
  -4.1552700e+00
  -4.1210900e+00
  -4.1845700e+00
  -4.1406300e+00
  -4.1455100e+00
  -4.1259800e+00
  -4.1796900e+00
  -4.1650400e+00
  -4.1064500e+00
  -4.1406300e+00
  -4.1552700e+00
  -4.1064500e+00
  -4.1015600e+00
  -4.2089800e+00
  -4.1796900e+00
  -4.1455100e+00
  -4.1503900e+00
  -4.1455100e+00
  -4.1357400e+00
  -4.1064500e+00
  -4.1796900e+00
  -4.1406300e+00
  -4.1064500e+00
  -4.1455100e+00
  -4.1162100e+00
  -4.1406300e+00
  -4.0966800e+00
  -4.1796900e+00
  -4.1601600e+00
  -4.0966800e+00
  -4.1259800e+00
  -4.1210900e+00
  -4.1406300e+00
  -4.1210900e+00
  -4.1552700e+00
  -4.1552700e+00
  -4.1113300e+00
  -4.1210900e+00
  -4.1796900e+00
  -4.1113300e+00
  -4.1064500e+00
  -4.0722700e+00
  -4.1796900e+00
  -4.0918000e+00
  -4.1503900e+00
  -4.2041000e+00
  -4.1796900e+00
  -4.1210900e+00
  -4.1357400e+00
  -4.1699200e+00
  -4.1455100e+00
  -4.1015600e+00
  -4.1406300e+00
  -4.1503900e+00
  -4.0966800e+00
  -4.1259800e+00
  -4.1699200e+00
  -4.0966800e+00
  -4.1308600e+00
  -4.1699200e+00
  -4.1650400e+00
  -4.1162100e+00
  -4.1308600e+00
  -4.2089800e+00
  -4.1406300e+00
  -4.0918000e+00
  -4.1406300e+00
  -4.1406300e+00
  -4.1406300e+00
  -4.1308600e+00
  -4.1552700e+00
  -4.1552700e+00
  -4.1064500e+00
  -4.1357400e+00
  -4.1796900e+00
  -4.1162100e+00
  -4.0673800e+00
  -4.1210900e+00
  -4.1259800e+00
  -4.1650400e+00
  -4.1308600e+00
  -4.1601600e+00
  -4.1699200e+00
  -4.1259800e+00
  -4.1601600e+00
  -4.1357400e+00
  -4.1162100e+00
  -4.1113300e+00
  -4.1796900e+00
  -4.1308600e+00
  -4.1601600e+00
  -4.1552700e+00
  -4.1748000e+00
  -4.1162100e+00
  -4.1406300e+00
  -4.1943400e+00
  -4.1699200e+00
  -4.1357400e+00
  -4.1308600e+00
  -4.1650400e+00
  -4.1210900e+00
  -4.1162100e+00
  -4.1455100e+00
  -4.1699200e+00
  -4.1357400e+00
  -4.1210900e+00
  -4.1845700e+00
  -4.1113300e+00
  -4.0918000e+00
  -4.1699200e+00
  -4.1357400e+00
  -4.1259800e+00
  -4.1357400e+00
  -4.1552700e+00
  -4.1845700e+00
  -4.1503900e+00
  -4.1406300e+00
  -4.1796900e+00
  -4.1259800e+00
  -4.1162100e+00
  -4.1503900e+00
  -4.1455100e+00
  -4.1406300e+00
  -4.1113300e+00
  -4.1894500e+00
  -4.1357400e+00
  -4.1552700e+00
  -4.1210900e+00
  -4.1943400e+00
  -4.1650400e+00
  -4.0918000e+00
  -4.1601600e+00
  -4.0966800e+00
  -4.1455100e+00
  -4.1455100e+00
  -4.1455100e+00
  -4.1210900e+00
  -4.1308600e+00
  -4.1748000e+00
  -4.1601600e+00
  -4.1308600e+00
  -4.1357400e+00
  -4.1406300e+00
  -4.1406300e+00
  -4.1259800e+00
  -4.1357400e+00
  -4.1552700e+00
  -4.0966800e+00
  -4.1357400e+00
  -4.1894500e+00
  -4.1357400e+00
  -4.1308600e+00
  -4.1406300e+00
  -4.1601600e+00
  -4.1162100e+00
  -4.1015600e+00
  -4.1552700e+00
  -4.1210900e+00
  -4.1455100e+00
  -4.1650400e+00
  -4.1601600e+00
  -4.1064500e+00
  -4.1552700e+00
  -4.1455100e+00
  -4.1455100e+00
  -4.1357400e+00
  -4.1210900e+00
  -4.1699200e+00
  -4.1406300e+00
  -4.1210900e+00
  -4.1455100e+00
  -4.1357400e+00
  -4.1015600e+00
  -4.1064500e+00
  -4.1601600e+00
  -4.1503900e+00
  -4.1210900e+00
  -4.1259800e+00
  -4.1210900e+00
  -4.1162100e+00
  -4.1064500e+00
  -4.1748000e+00
  -4.0918000e+00
  -4.0918000e+00
  -4.1259800e+00
  -4.1210900e+00
  -4.1210900e+00
  -4.0918000e+00
  -4.1601600e+00
  -4.1308600e+00
  -4.0918000e+00
  -4.1162100e+00
  -4.1162100e+00
  -4.0820300e+00
  -4.0576200e+00
  -4.1064500e+00
  -4.1308600e+00
  -4.0771500e+00
  -4.1113300e+00
  -4.1503900e+00
  -4.1015600e+00
  -4.1064500e+00
  -4.1210900e+00
  -4.1357400e+00
  -4.1064500e+00
  -4.0576200e+00
  -4.1503900e+00
  -4.1113300e+00
  -4.0869100e+00
  -4.1162100e+00
  -4.1210900e+00
  -4.0576200e+00
  -4.0722700e+00
  -4.1601600e+00
  -4.1259800e+00
  -4.1259800e+00
  -4.0820300e+00
  -4.1406300e+00
  -4.1162100e+00
  -4.0966800e+00
  -4.1015600e+00
  -4.1259800e+00
  -4.0820300e+00
  -4.0869100e+00
  -4.1357400e+00
  -4.0869100e+00
  -4.0966800e+00
  -4.1064500e+00
  -4.0918000e+00
  -4.1308600e+00
  -4.0771500e+00
  -4.1650400e+00
  -4.1210900e+00
  -4.0722700e+00
  -4.0918000e+00
  -4.1406300e+00
  -4.0918000e+00
  -4.0673800e+00
  -4.1064500e+00
  -4.1308600e+00
  -4.1064500e+00
  -4.0429700e+00
  -4.0820300e+00
  -4.1259800e+00
  -4.1308600e+00
  -4.1064500e+00
  -4.1308600e+00
  -4.0673800e+00
  -4.1064500e+00
  -4.1210900e+00
  -4.1162100e+00
  -4.0918000e+00
  -4.1259800e+00
  -4.1455100e+00
  -4.0869100e+00
  -4.0966800e+00
  -4.1455100e+00
  -4.1064500e+00
  -4.0918000e+00
  -4.1259800e+00
  -4.1552700e+00
  -4.1503900e+00
  -4.1064500e+00
  -4.1064500e+00
  -4.1455100e+00
  -4.1064500e+00
  -4.1210900e+00
  -4.1503900e+00
  -4.1210900e+00
  -4.1259800e+00
  -4.1357400e+00
  -4.1552700e+00
  -4.1113300e+00
  -4.1162100e+00
  -4.1699200e+00
  -4.1406300e+00
  -4.1308600e+00
  -4.1113300e+00
  -4.1601600e+00
  -4.1162100e+00
  -4.1308600e+00
  -4.1357400e+00
  -4.1406300e+00
  -4.1210900e+00
  -4.1406300e+00
  -4.1748000e+00
  -4.1552700e+00
  -4.1406300e+00
  -4.1308600e+00
  -4.1699200e+00
  -4.1113300e+00
  -4.1406300e+00
  -4.1406300e+00
  -4.1406300e+00
  -4.1162100e+00
  -4.1357400e+00
  -4.1650400e+00
  -4.0966800e+00
  -4.1455100e+00
  -4.1406300e+00
  -4.1406300e+00
  -4.0966800e+00
  -4.1259800e+00
  -4.1601600e+00
  -4.1162100e+00
  -4.1113300e+00
  -4.1503900e+00
  -4.1210900e+00
  -4.1113300e+00
  -4.1064500e+00
  -4.1162100e+00
  -4.0869100e+00
  -4.1015600e+00
  -4.0820300e+00
  -4.1308600e+00
  -4.0869100e+00
  -4.0820300e+00
  -4.1162100e+00
  -4.0966800e+00
  -4.0576200e+00
  -4.0722700e+00
  -4.1015600e+00
  -4.0478500e+00
  -4.0429700e+00
  -4.0966800e+00
  -4.0625000e+00
  -4.0136700e+00
  -3.9990200e+00
  -4.0966800e+00
  -4.0185500e+00
  -4.0576200e+00
  -3.9990200e+00
  -4.0478500e+00
  -4.0234400e+00
  -3.9990200e+00
  -4.0576200e+00
  -3.9990200e+00
  -3.9941400e+00
  -4.0087900e+00
  -3.9843800e+00
  -3.9746100e+00
  -3.9648400e+00
  -3.9794900e+00
  -3.9160200e+00
  -3.9257800e+00
  -3.9794900e+00
  -4.0087900e+00
  -3.9013700e+00
  -3.9355500e+00
  -3.9306600e+00
  -3.9453100e+00
  -3.9013700e+00
  -3.9111300e+00
  -3.9550800e+00
  -3.8867200e+00
  -3.9013700e+00
  -3.9306600e+00
  -3.8916000e+00
  -3.8623000e+00
  -3.8769500e+00
  -3.8574200e+00
  -3.8916000e+00
  -3.8085900e+00
  -3.8916000e+00
  -3.8574200e+00
  -3.8134800e+00
  -3.8525400e+00
  -3.8623000e+00
  -3.8720700e+00
  -3.8232400e+00
  -3.8427700e+00
  -3.8720700e+00
  -3.8281300e+00
  -3.8232400e+00
  -3.8330100e+00
  -3.8378900e+00
  -3.8037100e+00
  -3.8232400e+00
  -3.8281300e+00
  -3.8427700e+00
  -3.8232400e+00
  -3.8769500e+00
  -3.7939500e+00
  -3.8037100e+00
  -3.7988300e+00
  -3.8574200e+00
  -3.7841800e+00
  -3.8037100e+00
  -3.8134800e+00
  -3.8037100e+00
  -3.8037100e+00
  -3.7841800e+00
  -3.8378900e+00
  -3.8232400e+00
  -3.7841800e+00
  -3.7548800e+00
  -3.8330100e+00
  -3.8427700e+00
  -3.8037100e+00
  -3.8720700e+00
  -3.8525400e+00
  -3.8037100e+00
  -3.7988300e+00
  -3.8476600e+00
  -3.8330100e+00
  -3.7988300e+00
  -3.8574200e+00
  -3.8574200e+00
  -3.8281300e+00
  -3.8427700e+00
  -3.9209000e+00
  -3.8818400e+00
  -3.8281300e+00
  -3.8281300e+00
  -3.9306600e+00
  -3.8671900e+00
  -3.8232400e+00
  -3.9062500e+00
  -3.8671900e+00
  -3.8671900e+00
  -3.8671900e+00
  -3.9062500e+00
  -3.8916000e+00
  -3.9013700e+00
  -3.9062500e+00
  -3.9404300e+00
  -3.8671900e+00
  -3.9404300e+00
  -3.9404300e+00
  -3.9502000e+00
  -3.8867200e+00
  -3.9648400e+00
  -3.9941400e+00
  -3.9404300e+00
  -3.9648400e+00
  -4.0039100e+00
  -3.9794900e+00
  -3.9843800e+00
  -3.9697300e+00
  -3.9941400e+00
  -4.0039100e+00
  -3.9697300e+00
  -4.0527300e+00
  -4.0087900e+00
  -4.0380900e+00
  -4.0234400e+00
  -4.0869100e+00
  -4.0576200e+00
  -4.0576200e+00
  -4.0283200e+00
  -4.0771500e+00
  -4.0527300e+00
  -4.0527300e+00
  -4.1064500e+00
  -4.0625000e+00
  -4.0673800e+00
  -4.0673800e+00
  -4.1015600e+00
  -4.0673800e+00
  -4.0673800e+00
  -4.1308600e+00
  -4.0527300e+00
  -4.0527300e+00
  -4.1210900e+00
  -4.0918000e+00
  -4.1113300e+00
  -4.1259800e+00
  -4.1455100e+00
  -4.1357400e+00
  -4.1162100e+00
  -4.1113300e+00
  -4.1699200e+00
  -4.0966800e+00
  -4.1113300e+00
  -4.1210900e+00
  -4.1503900e+00
  -4.1064500e+00
  -4.1552700e+00
  -4.1406300e+00
  -4.1162100e+00
  -4.1650400e+00
  -4.1259800e+00
  -4.1748000e+00
  -4.1601600e+00
  -4.1210900e+00
  -4.1601600e+00
  -4.1357400e+00
  -4.1210900e+00
  -4.1406300e+00
  -4.1650400e+00
  -4.1259800e+00
  -4.1113300e+00
  -4.1699200e+00
  -4.1259800e+00
  -4.1259800e+00
  -4.1503900e+00
  -4.1796900e+00
  -4.1210900e+00
  -4.1406300e+00
  -4.1601600e+00
  -4.1845700e+00
  -4.1406300e+00
  -4.1406300e+00
  -4.1943400e+00
  -4.1699200e+00
  -4.1259800e+00
  -4.1455100e+00
  -4.1552700e+00
  -4.1455100e+00
  -4.1503900e+00
  -4.1894500e+00
  -4.1894500e+00
  -4.1650400e+00
  -4.1357400e+00
  -4.1992200e+00
  -4.1650400e+00
  -4.1357400e+00
  -4.1748000e+00
  -4.1601600e+00
  -4.1406300e+00
  -4.1503900e+00
  -4.1992200e+00
  -4.1455100e+00
  -4.1162100e+00
  -4.1601600e+00
  -4.1650400e+00
  -4.1552700e+00
  -4.1455100e+00
  -4.2089800e+00
  -4.1894500e+00
  -4.1503900e+00
  -4.1357400e+00
  -4.1699200e+00
  -4.1552700e+00
  -4.1406300e+00
  -4.1894500e+00
  -4.1650400e+00
  -4.1552700e+00
  -4.1357400e+00
  -4.1943400e+00
  -4.1650400e+00
  -4.1357400e+00
  -4.1650400e+00
  -4.1552700e+00
  -4.0966800e+00
  -4.1357400e+00
  -4.2041000e+00
  -4.1796900e+00
  -4.1455100e+00
  -4.1210900e+00
  -4.1845700e+00
  -4.1259800e+00
  -4.1552700e+00
  -4.1992200e+00
  -4.1552700e+00
  -4.1503900e+00
  -4.1210900e+00
  -4.1552700e+00
  -4.1455100e+00
  -4.1210900e+00
  -4.2089800e+00
  -4.1552700e+00
  -4.1162100e+00
  -4.1503900e+00
  -4.2236300e+00
  -4.1113300e+00
  -4.1503900e+00
  -4.1796900e+00
  -4.1845700e+00
  -4.1748000e+00
  -4.1650400e+00
  -4.1845700e+00
  -4.1748000e+00
  -4.1552700e+00
  -4.1699200e+00
  -4.1748000e+00
  -4.1601600e+00
  -4.1650400e+00
  -4.1748000e+00
  -4.1455100e+00
  -4.1650400e+00
  -4.1601600e+00
  -4.1601600e+00
  -4.2041000e+00
  -4.1455100e+00
  -4.1699200e+00
  -4.1748000e+00
  -4.1552700e+00
  -4.1699200e+00
  -4.1894500e+00
  -4.1845700e+00
  -4.1406300e+00
  -4.1796900e+00
  -4.1699200e+00
  -4.1455100e+00
  -4.1552700e+00
  -4.2138700e+00
  -4.2089800e+00
  -4.1992200e+00
  -4.1357400e+00
  -4.1796900e+00
  -4.1699200e+00
  -4.1748000e+00
  -4.1894500e+00
  -4.1699200e+00
  -4.1601600e+00
  -4.1503900e+00
  -4.2236300e+00
  -4.1748000e+00
  -4.1699200e+00
  -4.1943400e+00
  -4.1308600e+00
  -4.1894500e+00
  -4.1503900e+00
  -4.2529300e+00
  -4.1992200e+00
  -4.1943400e+00
  -4.1601600e+00
  -4.2138700e+00
  -4.2041000e+00
  -4.1845700e+00
  -4.2236300e+00
  -4.1943400e+00
  -4.1796900e+00
  -4.1552700e+00
  -4.1894500e+00
  -4.1845700e+00
  -4.2041000e+00
  -4.2285200e+00
  -4.1699200e+00
  -4.1650400e+00
  -4.1796900e+00
  -4.2334000e+00
  -4.1748000e+00
  -4.2089800e+00
  -4.1943400e+00
  -4.2285200e+00
  -4.1748000e+00
  -4.1796900e+00
  -4.2334000e+00
  -4.1943400e+00
  -4.1650400e+00
  -4.1601600e+00
  -4.2089800e+00
  -4.1894500e+00
  -4.1699200e+00
  -4.1894500e+00
  -4.2089800e+00
  -4.1796900e+00
  -4.1992200e+00
  -4.2089800e+00
  -4.1894500e+00
  -4.1650400e+00
  -4.1894500e+00
  -4.1796900e+00
  -4.1748000e+00
  -4.1552700e+00
  -4.2187500e+00
  -4.1845700e+00
  -4.1601600e+00
  -4.1650400e+00
  -4.1943400e+00
  -4.2138700e+00
  -4.1748000e+00
  -4.2529300e+00
  -4.1943400e+00
  -4.1601600e+00
  -4.1845700e+00
  -4.1845700e+00
  -4.1748000e+00
  -4.1650400e+00
  -4.1845700e+00
  -4.1796900e+00
  -4.1601600e+00
  -4.1699200e+00
  -4.1845700e+00
  -4.1796900e+00
  -4.1601600e+00
  -4.2187500e+00
  -4.1845700e+00
  -4.1601600e+00
  -4.1308600e+00
  -4.1845700e+00
  -4.2041000e+00
  -4.1503900e+00
  -4.1552700e+00
  -4.1943400e+00
  -4.1503900e+00
  -4.1699200e+00
  -4.1992200e+00
  -4.1796900e+00
  -4.1650400e+00
  -4.1552700e+00
  -4.1943400e+00
  -4.1796900e+00
  -4.1455100e+00
  -4.1552700e+00
  -4.1748000e+00
  -4.1992200e+00
  -4.1748000e+00
  -4.1601600e+00
  -4.1650400e+00
  -4.1748000e+00
  -4.1992200e+00
  -4.1845700e+00
  -4.1357400e+00
  -4.1601600e+00
  -4.1992200e+00
  -4.1748000e+00
  -4.1552700e+00
  -4.1503900e+00
  -4.1210900e+00
  -4.1406300e+00
  -4.1210900e+00
  -4.1894500e+00
  -4.1650400e+00
  -4.1845700e+00
  -4.1748000e+00
  -4.1796900e+00
  -4.1503900e+00
  -4.1259800e+00
  -4.1992200e+00
  -4.1650400e+00
  -4.1406300e+00
  -4.1259800e+00
  -4.1845700e+00
  -4.1748000e+00
  -4.1796900e+00
  -4.2089800e+00
  -4.1796900e+00
  -4.1650400e+00
  -4.1552700e+00
  -4.1406300e+00
  -4.2138700e+00
  -4.1308600e+00
  -4.1601600e+00
  -4.1748000e+00
  -4.1406300e+00
  -4.1308600e+00
  -4.1845700e+00
  -4.1699200e+00
  -4.1406300e+00
  -4.1210900e+00
  -4.1699200e+00
  -4.1699200e+00
  -4.1894500e+00
  -4.1552700e+00
  -4.1992200e+00
  -4.1357400e+00
  -4.1064500e+00
  -4.2138700e+00
  -4.1845700e+00
  -4.1601600e+00
  -4.1455100e+00
  -4.1748000e+00
  -4.1503900e+00
  -4.1357400e+00
  -4.1650400e+00
  -4.1601600e+00
  -4.1503900e+00
  -4.1503900e+00
  -4.1552700e+00
  -4.1064500e+00
  -4.1259800e+00
  -4.1455100e+00
  -4.1748000e+00
  -4.1845700e+00
  -4.0966800e+00
  -4.1699200e+00
  -4.1259800e+00
  -4.1406300e+00
  -4.1552700e+00
  -4.1503900e+00
  -4.1308600e+00
  -4.1406300e+00
  -4.1894500e+00
  -4.1503900e+00
  -4.1357400e+00
  -4.0918000e+00
  -4.1552700e+00
  -4.1357400e+00
  -4.1455100e+00
  -4.1845700e+00
  -4.1503900e+00
  -4.1503900e+00
  -4.1015600e+00
  -4.1748000e+00
  -4.1210900e+00
  -4.1210900e+00
  -4.1455100e+00
  -4.1601600e+00
  -4.1357400e+00
  -4.1113300e+00
  -4.1699200e+00
  -4.1162100e+00
  -4.1601600e+00
  -4.1015600e+00
  -4.1796900e+00
  -4.1015600e+00
  -4.1357400e+00
  -4.1748000e+00
  -4.1113300e+00
  -4.0966800e+00
  -4.1113300e+00
  -4.1406300e+00
  -4.1406300e+00
  -4.0966800e+00
  -4.1699200e+00
  -4.1210900e+00
  -4.1308600e+00
  -4.1259800e+00
  -4.1406300e+00
  -4.1357400e+00
  -4.1455100e+00
  -4.1259800e+00
  -4.1406300e+00
  -4.1455100e+00
  -4.0625000e+00
  -4.1943400e+00
  -4.1064500e+00
  -4.1015600e+00
  -4.1455100e+00
  -4.1503900e+00
  -4.1210900e+00
  -4.1064500e+00
  -4.1601600e+00
  -4.1308600e+00
  -4.1210900e+00
  -4.1259800e+00
  -4.1601600e+00
  -4.1162100e+00
  -4.0869100e+00
  -4.1308600e+00
  -4.1064500e+00
  -4.0771500e+00
  -4.1210900e+00
  -4.1503900e+00
  -4.1210900e+00
  -4.1162100e+00
  -4.1357400e+00
  -4.1308600e+00
  -4.1064500e+00
  -4.0820300e+00
  -4.1650400e+00
  -4.1113300e+00
  -4.0966800e+00
  -4.1601600e+00
  -4.0918000e+00
  -4.1162100e+00
  -4.1259800e+00
  -4.1992200e+00
  -4.0869100e+00
  -4.0966800e+00
  -4.0966800e+00
  -4.1455100e+00
  -4.1210900e+00
  -4.0869100e+00
  -4.1601600e+00
  -4.1308600e+00
  -4.0918000e+00
  -4.1064500e+00
  -4.1210900e+00
  -4.1210900e+00
  -4.1259800e+00
  -4.1455100e+00
  -4.1503900e+00
  -4.1113300e+00
  -4.0771500e+00
  -4.1699200e+00
  -4.1308600e+00
  -4.0918000e+00
  -4.1406300e+00
  -4.1552700e+00
  -4.1210900e+00
  -4.1162100e+00
  -4.1650400e+00
  -4.1357400e+00
  -4.1210900e+00
  -4.1210900e+00
  -4.1259800e+00
  -4.1064500e+00
  -4.0918000e+00
  -4.1162100e+00
  -4.1406300e+00
  -4.1064500e+00
  -4.1259800e+00
  -4.1845700e+00
  -4.1259800e+00
  -4.1210900e+00
  -4.1259800e+00
  -4.1357400e+00
  -4.1113300e+00
  -4.1113300e+00
  -4.1601600e+00
  -4.1259800e+00
  -4.1357400e+00
  -4.0869100e+00
  -4.1357400e+00
  -4.0673800e+00
  -4.1113300e+00
  -4.1748000e+00
  -4.1308600e+00
  -4.0869100e+00
  -4.0869100e+00
  -4.1601600e+00
  -4.1406300e+00
  -4.1210900e+00
  -4.1552700e+00
  -4.1406300e+00
  -4.1210900e+00
  -4.1162100e+00
  -4.1699200e+00
  -4.1064500e+00
  -4.0918000e+00
  -4.1357400e+00
  -4.1113300e+00
  -4.0869100e+00
  -4.1064500e+00
  -4.1992200e+00
  -4.1699200e+00
  -4.0771500e+00
  -4.1308600e+00
  -4.1699200e+00
  -4.1308600e+00
  -4.1308600e+00
  -4.1601600e+00
  -4.1552700e+00
  -4.1064500e+00
  -4.1308600e+00
  -4.1210900e+00
  -4.1210900e+00
  -4.1113300e+00
  -4.0966800e+00
  -4.1650400e+00
  -4.1650400e+00
  -4.1601600e+00
  -4.1796900e+00
  -4.1406300e+00
  -4.1357400e+00
  -4.1601600e+00
  -4.1503900e+00
  -4.1406300e+00
  -4.1259800e+00
  -4.1796900e+00
  -4.1259800e+00
  -4.0722700e+00
  -4.1162100e+00
  -4.1894500e+00
  -4.1406300e+00
  -4.1113300e+00
  -4.1259800e+00
  -4.1796900e+00
  -4.1064500e+00
  -4.1650400e+00
  -4.1845700e+00
  -4.1503900e+00
  -4.1357400e+00
  -4.1601600e+00
  -4.1357400e+00
  -4.1064500e+00
  -4.1015600e+00
  -4.1796900e+00
  -4.1162100e+00
  -4.1552700e+00
  -4.1015600e+00
  -4.1357400e+00
  -4.1113300e+00
  -4.1357400e+00
  -4.2089800e+00
  -4.1845700e+00
  -4.1699200e+00
  -4.1064500e+00
  -4.1650400e+00
  -4.1162100e+00
  -4.1015600e+00
  -4.1357400e+00
  -4.1601600e+00
  -4.1113300e+00
  -4.1113300e+00
  -4.1503900e+00
  -4.1455100e+00
  -4.1064500e+00
  -4.1748000e+00
  -4.1455100e+00
  -4.1308600e+00
  -4.0869100e+00
  -4.1796900e+00
  -4.1455100e+00
  -4.1308600e+00
  -4.1357400e+00
  -4.1308600e+00
  -4.1064500e+00
  -4.0966800e+00
  -4.1748000e+00
  -4.1357400e+00
  -4.1210900e+00
  -4.1064500e+00
  -4.1796900e+00
  -4.1015600e+00
  -4.1064500e+00
  -4.1552700e+00
  -4.1406300e+00
  -4.1064500e+00
  -4.0722700e+00
  -4.1601600e+00
  -4.0966800e+00
  -4.1015600e+00
  -4.1210900e+00
  -4.1064500e+00
  -4.0820300e+00
  -4.0966800e+00
  -4.1064500e+00
  -4.0722700e+00
  -4.0673800e+00
  -4.1064500e+00
  -4.1406300e+00
  -4.0527300e+00
  -4.1113300e+00
  -4.1015600e+00
  -4.1406300e+00
  -4.0771500e+00
  -4.0673800e+00
  -4.1064500e+00
  -4.0966800e+00
  -4.0673800e+00
  -4.0966800e+00
  -4.1015600e+00
  -4.0673800e+00
  -4.0625000e+00
  -4.1357400e+00
  -4.0722700e+00
  -4.0820300e+00
  -4.0673800e+00
  -4.0576200e+00
  -3.9941400e+00
  -4.0332000e+00
  -4.0722700e+00
  -4.0771500e+00
  -4.0673800e+00
  -4.0478500e+00
  -4.0771500e+00
  -4.0380900e+00
  -4.0039100e+00
  -4.0673800e+00
  -4.0332000e+00
  -4.0185500e+00
  -4.0087900e+00
  -4.0478500e+00
  -4.0234400e+00
  -3.9746100e+00
  -4.0283200e+00
  -3.9746100e+00
  -3.9697300e+00
  -4.0234400e+00
  -4.0332000e+00
  -4.0039100e+00
  -3.9941400e+00
  -3.9990200e+00
  -4.0087900e+00
  -3.9648400e+00
  -3.9355500e+00
  -3.9892600e+00
  -3.9892600e+00
  -3.9502000e+00
  -3.9843800e+00
  -3.9599600e+00
  -3.9746100e+00
  -3.8964800e+00
  -4.0185500e+00
  -3.9502000e+00
  -3.9599600e+00
  -3.9404300e+00
  -4.0087900e+00
  -3.9257800e+00
  -3.9355500e+00
  -3.9550800e+00
  -3.9648400e+00
  -3.9355500e+00
  -3.9062500e+00
  -3.9697300e+00
  -3.9013700e+00
  -3.8867200e+00
  -3.8818400e+00
  -3.9160200e+00
  -3.9453100e+00
  -3.9160200e+00
  -3.9355500e+00
  -3.9209000e+00
  -3.9013700e+00
  -3.8720700e+00
  -3.9453100e+00
  -3.9062500e+00
  -3.8720700e+00
  -3.9160200e+00
  -3.9013700e+00
  -3.8818400e+00
  -3.8476600e+00
  -3.9013700e+00
  -3.8769500e+00
  -3.8818400e+00
  -3.8671900e+00
  -3.9453100e+00
  -3.8427700e+00
  -3.8623000e+00
  -3.8720700e+00
  -3.8916000e+00
  -3.8525400e+00
  -3.8720700e+00
  -3.8867200e+00
  -3.8720700e+00
  -3.8525400e+00
  -3.8671900e+00
  -3.9013700e+00
  -3.8720700e+00
  -3.8427700e+00
  -3.8867200e+00
  -3.8574200e+00
  -3.8378900e+00
  -3.8867200e+00
  -3.9062500e+00
  -3.8476600e+00
  -3.8232400e+00
  -3.8964800e+00
  -3.8476600e+00
  -3.8085900e+00
  -3.8476600e+00
  -3.8232400e+00
  -3.8232400e+00
  -3.8232400e+00
  -3.8671900e+00
  -3.8476600e+00
  -3.7841800e+00
  -3.8085900e+00
  -3.8623000e+00
  -3.8232400e+00
  -3.8037100e+00
  -3.7988300e+00
  -3.8623000e+00
  -3.8183600e+00
  -3.7939500e+00
  -3.8476600e+00
  -3.7939500e+00
  -3.7793000e+00
  -3.8281300e+00
  -3.8378900e+00
  -3.7988300e+00
  -3.7353500e+00
  -3.8427700e+00
  -3.7890600e+00
  -3.7695300e+00
  -3.8085900e+00
  -3.8232400e+00
  -3.8085900e+00
  -3.7890600e+00
  -3.8037100e+00
  -3.7548800e+00
  -3.7939500e+00
  -3.7890600e+00
  -3.8281300e+00
  -3.7646500e+00
  -3.7451200e+00
  -3.8134800e+00
  -3.7988300e+00
  -3.7597700e+00
  -3.7548800e+00
  -3.8085900e+00
  -3.7793000e+00
  -3.7793000e+00
  -3.7744100e+00
  -3.7646500e+00
  -3.7695300e+00
  -3.7548800e+00
  -3.7939500e+00
  -3.7793000e+00
  -3.7304700e+00
  -3.7255900e+00
  -3.7744100e+00
  -3.7402300e+00
  -3.7255900e+00
  -3.7451200e+00
  -3.7304700e+00
  -3.7207000e+00
  -3.7353500e+00
  -3.7158200e+00
  -3.7158200e+00
  -3.7060500e+00
  -3.7353500e+00
  -3.7255900e+00
  -3.6865200e+00
  -3.7011700e+00
  -3.7500000e+00
  -3.6962900e+00
  -3.6767600e+00
  -3.6962900e+00
  -3.6865200e+00
  -3.6474600e+00
  -3.6572300e+00
  -3.6962900e+00
  -3.6767600e+00
  -3.6572300e+00
  -3.6279300e+00
  -3.6572300e+00
  -3.6181600e+00
  -3.6572300e+00
  -3.7060500e+00
  -3.6572300e+00
  -3.6328100e+00
  -3.5986300e+00
  -3.6328100e+00
  -3.6230500e+00
  -3.5888700e+00
  -3.6328100e+00
  -3.6132800e+00
  -3.5791000e+00
  -3.5839800e+00
  -3.6132800e+00
  -3.6035200e+00
  -3.5302700e+00
  -3.5546900e+00
  -3.5546900e+00
  -3.5693400e+00
  -3.5107400e+00
  -3.5498000e+00
  -3.5742200e+00
  -3.5156300e+00
  -3.5009800e+00
  -3.5546900e+00
  -3.4863300e+00
  -3.4912100e+00
  -3.5107400e+00
  -3.5253900e+00
  -3.4179700e+00
  -3.4472700e+00
  -3.4960900e+00
  -3.4570300e+00
  -3.4277300e+00
  -3.4814500e+00
  -3.4521500e+00
  -3.4472700e+00
  -3.4277300e+00
  -3.4668000e+00
  -3.4375000e+00
  -3.3789100e+00
  -3.3984400e+00
  -3.4326200e+00
  -3.3789100e+00
  -3.3544900e+00
  -3.4033200e+00
  -3.4082000e+00
  -3.3544900e+00
  -3.3544900e+00
  -3.3789100e+00
  -3.3447300e+00
  -3.3349600e+00
  -3.3789100e+00
  -3.3447300e+00
  -3.3544900e+00
  -3.3154300e+00
  -3.3398400e+00
  -3.3203100e+00
  -3.3154300e+00
  -3.3252000e+00
  -3.3252000e+00
  -3.2910200e+00
  -3.2617200e+00
  -3.2959000e+00
  -3.2910200e+00
  -3.3007800e+00
  -3.2812500e+00
  -3.3007800e+00
  -3.2714800e+00
  -3.2519500e+00
  -3.3007800e+00
  -3.2666000e+00
  -3.2177700e+00
  -3.2373000e+00
  -3.2568400e+00
  -3.2080100e+00
  -3.2226600e+00
  -3.2373000e+00
  -3.2421900e+00
  -3.1982400e+00
  -3.1738300e+00
  -3.2324200e+00
  -3.2373000e+00
  -3.2031300e+00
  -3.2031300e+00
  -3.2031300e+00
  -3.2177700e+00
  -3.1347700e+00
  -3.1933600e+00
  -3.1933600e+00
  -3.1884800e+00
  -3.1445300e+00
  -3.1884800e+00
  -3.1298800e+00
  -3.1347700e+00
  -3.1689500e+00
  -3.1396500e+00
  -3.1201200e+00
  -3.1396500e+00
  -3.1689500e+00
  -3.1201200e+00
  -3.1494100e+00
  -3.1347700e+00
  -3.1298800e+00
  -3.1103500e+00
  -3.0957000e+00
  -3.1005900e+00
  -3.0908200e+00
  -3.0517600e+00
  -3.0761700e+00
  -3.1054700e+00
  -3.0712900e+00
  -3.0761700e+00
  -3.0712900e+00
  -3.0175800e+00
  -3.0664100e+00
  -3.0175800e+00
  -3.0859400e+00
  -2.9980500e+00
  -3.0078100e+00
  -3.0517600e+00
  -3.0029300e+00
  -3.0224600e+00
  -3.0127000e+00
  -3.0517600e+00
  -3.0078100e+00
  -2.9638700e+00
  -3.0029300e+00
  -2.9834000e+00
  -2.9638700e+00
  -2.9638700e+00
  -3.0224600e+00
  -2.9394500e+00
  -2.9785200e+00
  -2.9834000e+00
  -2.9589800e+00
  -2.9492200e+00
  -2.9443400e+00
  -2.9882800e+00
  -2.9150400e+00
  -2.9150400e+00
  -2.9003900e+00
  -2.8906300e+00
  -2.9199200e+00
  -2.8955100e+00
  -2.8710900e+00
  -2.8808600e+00
  -2.8515600e+00
  -2.8271500e+00
  -2.8808600e+00
  -2.8222700e+00
  -2.8271500e+00
  -2.8564500e+00
  -2.8418000e+00
  -2.8027300e+00
  -2.7734400e+00
  -2.8418000e+00
  -2.8173800e+00
  -2.7587900e+00
  -2.7783200e+00
  -2.7832000e+00
  -2.7539100e+00
  -2.7343800e+00
  -2.7929700e+00
  -2.7832000e+00
  -2.7246100e+00
  -2.7343800e+00
  -2.7246100e+00
  -2.7197300e+00
  -2.7050800e+00
  -2.7050800e+00
  -2.7099600e+00
  -2.6562500e+00
  -2.6806600e+00
  -2.7099600e+00
  -2.6416000e+00
  -2.6269500e+00
  -2.6464800e+00
  -2.6709000e+00
  -2.6074200e+00
  -2.6171900e+00
  -2.6611300e+00
  -2.6318400e+00
  -2.5683600e+00
  -2.5585900e+00
  -2.5781300e+00
  -2.5634800e+00
  -2.5585900e+00
  -2.5781300e+00
  -2.5537100e+00
  -2.5585900e+00
  -2.5293000e+00
  -2.5585900e+00
  -2.4951200e+00
  -2.5097700e+00
  -2.5195300e+00
  -2.4902300e+00
  -2.4365200e+00
  -2.4267600e+00
  -2.4804700e+00
  -2.4414100e+00
  -2.4169900e+00
  -2.4658200e+00
  -2.4072300e+00
  -2.4072300e+00
  -2.3974600e+00
  -2.4414100e+00
  -2.3828100e+00
  -2.3535200e+00
  -2.3779300e+00
  -2.3681600e+00
  -2.3535200e+00
  -2.3242200e+00
  -2.3730500e+00
  -2.3486300e+00
  -2.3193400e+00
  -2.3046900e+00
  -2.3486300e+00
  -2.3193400e+00
  -2.2705100e+00
  -2.2705100e+00
  -2.2949200e+00
  -2.2656300e+00
  -2.2412100e+00
  -2.2949200e+00
  -2.2509800e+00
  -2.2119100e+00
  -2.2119100e+00
  -2.2753900e+00
  -2.1923800e+00
  -2.1875000e+00
  -2.2363300e+00
  -2.1972700e+00
  -2.1923800e+00
  -2.1386700e+00
  -2.1533200e+00
  -2.1826200e+00
  -2.1240200e+00
  -2.1728500e+00
  -2.1728500e+00
  -2.1435500e+00
  -2.0849600e+00
  -2.1435500e+00
  -2.0849600e+00
  -2.0752000e+00
  -2.0752000e+00
  -2.1093800e+00
  -2.0507800e+00
  -2.0459000e+00
  -2.1093800e+00
  -2.0703100e+00
  -2.0361300e+00
  -2.0507800e+00
  -2.0654300e+00
  -2.0117200e+00
  -1.9873000e+00
  -2.0507800e+00
  -1.9921900e+00
  -1.9824200e+00
  -1.9873000e+00
  -2.0166000e+00
  -1.9531300e+00
  -1.9287100e+00
  -1.9970700e+00
  -1.9726600e+00
  -1.9384800e+00
  -1.9091800e+00
  -1.9482400e+00
  -1.8847700e+00
  -1.8896500e+00
  -1.8750000e+00
  -1.9238300e+00
  -1.8798800e+00
  -1.8750000e+00
  -1.9580100e+00
  -1.8261700e+00
  -1.8652300e+00
  -1.8359400e+00
  -1.8994100e+00
  -1.8505900e+00
  -1.8408200e+00
  -1.8652300e+00
  -1.8457000e+00
  -1.8164100e+00
  -1.7480500e+00
  -1.8164100e+00
  -1.8261700e+00
  -1.7968800e+00
  -1.7919900e+00
  -1.8164100e+00
  -1.7871100e+00
  -1.7529300e+00
  -1.7822300e+00
  -1.7627000e+00
  -1.7236300e+00
  -1.7431600e+00
  -1.7919900e+00
  -1.7382800e+00
  -1.7187500e+00
  -1.7919900e+00
  -1.7041000e+00
  -1.6992200e+00
  -1.7041000e+00
  -1.7041000e+00
  -1.7041000e+00
  -1.6796900e+00
  -1.7138700e+00
  -1.7285200e+00
  -1.6748000e+00
  -1.6699200e+00
  -1.7089800e+00
  -1.6455100e+00
  -1.6503900e+00
  -1.6455100e+00
  -1.6455100e+00
  -1.6406300e+00
  -1.6357400e+00
  -1.6796900e+00
  -1.6308600e+00
  -1.6259800e+00
  -1.6210900e+00
  -1.6308600e+00
  -1.6113300e+00
  -1.6015600e+00
  -1.6748000e+00
  -1.6113300e+00
  -1.6015600e+00
  -1.6064500e+00
  -1.6308600e+00
  -1.6259800e+00
  -1.6064500e+00
  -1.6015600e+00
  -1.6113300e+00
  -1.6210900e+00
  -1.5722700e+00
  -1.6210900e+00
  -1.6455100e+00
  -1.5722700e+00
  -1.5722700e+00
  -1.6113300e+00
  -1.6064500e+00
  -1.5869100e+00
  -1.6406300e+00
  -1.6162100e+00
  -1.6064500e+00
  -1.6015600e+00
  -1.6357400e+00
  -1.6113300e+00
  -1.5625000e+00
  -1.6552700e+00
  -1.5771500e+00
  -1.5576200e+00
  -1.5332000e+00
  -1.6259800e+00
  -1.6064500e+00
  -1.5673800e+00
  -1.5966800e+00
  -1.6259800e+00
  -1.5966800e+00
  -1.5527300e+00
  -1.6357400e+00
  -1.5820300e+00
  -1.5869100e+00
  -1.5673800e+00
  -1.5625000e+00
  -1.5918000e+00
  -1.5673800e+00
  -1.6064500e+00
  -1.5722700e+00
  -1.5527300e+00
  -1.5429700e+00
  -1.5966800e+00
  -1.6015600e+00
  -1.5869100e+00
  -1.5918000e+00
  -1.5869100e+00
  -1.5380900e+00
  -1.5625000e+00
  -1.6064500e+00
  -1.5771500e+00
  -1.5234400e+00
  -1.5527300e+00
  -1.5185500e+00
  -1.5625000e+00
  -1.5332000e+00
  -1.6015600e+00
  -1.5673800e+00
  -1.5234400e+00
  -1.5283200e+00
  -1.5576200e+00
  -1.5185500e+00
  -1.5185500e+00
  -1.5136700e+00
  -1.5380900e+00
  -1.4990200e+00
  -1.5332000e+00
  -1.5234400e+00
  -1.5039100e+00
  -1.4990200e+00
  -1.5136700e+00
  -1.5185500e+00
  -1.4697300e+00
  -1.4550800e+00
  -1.5478500e+00
  -1.4892600e+00
  -1.4306600e+00
  -1.4697300e+00
  -1.4502000e+00
  -1.4209000e+00
  -1.4306600e+00
  -1.4404300e+00
  -1.4062500e+00
  -1.4062500e+00
  -1.4160200e+00
  -1.4013700e+00
  -1.3720700e+00
  -1.3427700e+00
  -1.4013700e+00
  -1.3916000e+00
  -1.3476600e+00
  -1.3378900e+00
  -1.3232400e+00
  -1.3183600e+00
  -1.2988300e+00
  -1.3330100e+00
  -1.3281300e+00
  -1.2890600e+00
  -1.2646500e+00
  -1.3085900e+00
  -1.2695300e+00
  -1.2207000e+00
  -1.1962900e+00
  -1.2451200e+00
  -1.2158200e+00
  -1.2060500e+00
  -1.2402300e+00
  -1.2060500e+00
  -1.1718800e+00
  -1.1669900e+00
  -1.1914100e+00
  -1.1572300e+00
  -1.1230500e+00
  -1.1572300e+00
  -1.1328100e+00
  -1.0888700e+00
  -1.0546900e+00
  -1.1230500e+00
  -1.0400400e+00
  -1.0205100e+00
  -1.0693400e+00
  -1.0546900e+00
  -9.9121100e-01
  -9.8632800e-01
  -1.0400400e+00
  -9.7656300e-01
  -9.9121100e-01
  -9.5703100e-01
  -9.9609400e-01
  -9.5703100e-01
  -9.0332000e-01
  -9.5703100e-01
  -9.5703100e-01
  -8.7402300e-01
  -8.6425800e-01
  -9.0332000e-01
  -8.9355500e-01
  -8.8867200e-01
  -9.4726600e-01
  -8.9843800e-01
  -8.5937500e-01
  -8.5937500e-01
  -9.2773400e-01
  -8.6914100e-01
  -8.1054700e-01
  -8.9843800e-01
  -8.8867200e-01
  -8.7890600e-01
  -8.4960900e-01
  -8.7890600e-01
  -8.5449200e-01
  -8.0078100e-01
  -8.3984400e-01
  -8.8867200e-01
  -8.4472700e-01
  -8.4472700e-01
  -9.2285200e-01
  -8.8867200e-01
  -8.5449200e-01
  -8.5937500e-01
  -9.0332000e-01
  -8.2519500e-01
  -8.9843800e-01
  -9.1796900e-01
  -8.7402300e-01
  -8.7402300e-01
  -8.4472700e-01
  -9.3261700e-01
  -8.6914100e-01
  -9.0332000e-01
  -9.2285200e-01
  -9.0820300e-01
  -9.1308600e-01
  -9.0332000e-01
  -9.6191400e-01
  -9.5214800e-01
  -9.3261700e-01
  -9.4726600e-01
  -1.0156300e+00
  -9.4238300e-01
  -9.6679700e-01
  -1.0107400e+00
  -9.7168000e-01
  -9.5703100e-01
  -9.4238300e-01
  -1.0156300e+00
  -1.0253900e+00
  -1.0351600e+00
  -1.0009800e+00
  -1.0595700e+00
  -1.0351600e+00
  -1.0156300e+00
  -1.0791000e+00
  -1.0791000e+00
  -1.0888700e+00
  -1.0791000e+00
  -1.1230500e+00
  -1.0742200e+00
  -1.0791000e+00
  -1.1230500e+00
  -1.1035200e+00
  -1.1132800e+00
  -1.1230500e+00
  -1.1474600e+00
  -1.1230500e+00
  -1.1621100e+00
  -1.1523400e+00
  -1.1572300e+00
  -1.1914100e+00
  -1.1572300e+00
  -1.2402300e+00
  -1.2109400e+00
  -1.1962900e+00
  -1.2548800e+00
  -1.2646500e+00
  -1.2500000e+00
  -1.2207000e+00
  -1.3085900e+00
  -1.2939500e+00
  -1.2793000e+00
  -1.3232400e+00
  -1.3085900e+00
  -1.3134800e+00
  -1.3671900e+00
  -1.3867200e+00
  -1.3720700e+00
  -1.3476600e+00
  -1.3623000e+00
  -1.4355500e+00
  -1.3964800e+00
  -1.4306600e+00
  -1.4746100e+00
  -1.4648400e+00
  -1.4746100e+00
  -1.4550800e+00
  -1.5429700e+00
  -1.4892600e+00
  -1.5283200e+00
  -1.5429700e+00
  -1.5625000e+00
  -1.5869100e+00
  -1.6015600e+00
  -1.6748000e+00
  -1.6259800e+00
  -1.6455100e+00
  -1.6748000e+00
  -1.7236300e+00
  -1.6943400e+00
  -1.7187500e+00
  -1.7968800e+00
  -1.7724600e+00
  -1.7773400e+00
  -1.7968800e+00
  -1.8652300e+00
  -1.8457000e+00
  -1.8652300e+00
  -1.9091800e+00
  -1.9335900e+00
  -1.8847700e+00
  -1.9531300e+00
  -2.0263700e+00
  -2.0166000e+00
  -2.0117200e+00
  -2.0605500e+00
  -2.1093800e+00
  -2.0898400e+00
  -2.1093800e+00
  -2.1630900e+00
  -2.1289100e+00
  -2.1875000e+00
  -2.2119100e+00
  -2.2705100e+00
  -2.2753900e+00
  -2.2558600e+00
  -2.3437500e+00
  -2.3730500e+00
  -2.3388700e+00
  -2.3437500e+00
  -2.4218800e+00
  -2.3974600e+00
  -2.4316400e+00
  -2.4462900e+00
  -2.4902300e+00
  -2.4658200e+00
  -2.5000000e+00
  -2.5585900e+00
  -2.5683600e+00
  -2.5683600e+00
  -2.5976600e+00
  -2.6367200e+00
  -2.6562500e+00
  -2.6318400e+00
  -2.6709000e+00
  -2.7246100e+00
  -2.7099600e+00
  -2.6953100e+00
  -2.7490200e+00
  -2.7197300e+00
  -2.7587900e+00
  -2.7880900e+00
  -2.7832000e+00
  -2.7929700e+00
  -2.8173800e+00
  -2.8662100e+00
  -2.8369100e+00
  -2.8222700e+00
  -2.8808600e+00
  -2.8515600e+00
  -2.9248000e+00
  -2.9248000e+00
  -2.9882800e+00
  -2.9394500e+00
  -2.9052700e+00
  -2.9638700e+00
  -3.0175800e+00
  -2.9736300e+00
  -2.9589800e+00
  -3.0175800e+00
  -3.0175800e+00
  -2.9931600e+00
  -3.0127000e+00
  -3.0761700e+00
  -3.0273400e+00
  -3.0273400e+00
  -3.0761700e+00
  -3.0664100e+00
  -3.0615200e+00
  -3.0468800e+00
  -3.0908200e+00
  -3.0664100e+00
  -3.1201200e+00
  -3.1054700e+00
  -3.0908200e+00
  -3.0908200e+00
  -3.0664100e+00
  -3.1298800e+00
  -3.1201200e+00
  -3.1152300e+00
  -3.1591800e+00
  -3.1787100e+00
  -3.1347700e+00
  -3.1445300e+00
  -3.2177700e+00
  -3.1152300e+00
  -3.1396500e+00
  -3.1543000e+00
  -3.2128900e+00
  -3.1884800e+00
  -3.1591800e+00
  -3.1835900e+00
  -3.2080100e+00
  -3.1835900e+00
  -3.1689500e+00
  -3.2763700e+00
  -3.2031300e+00
  -3.1689500e+00
  -3.2617200e+00
  -3.2666000e+00
  -3.2324200e+00
  -3.2226600e+00
  -3.2763700e+00
  -3.2617200e+00
  -3.2568400e+00
  -3.2714800e+00
  -3.3105500e+00
  -3.2763700e+00
  -3.2763700e+00
  -3.3496100e+00
  -3.3105500e+00
  -3.2910200e+00
  -3.2959000e+00
  -3.3349600e+00
  -3.3349600e+00
  -3.2861300e+00
  -3.3593800e+00
  -3.3886700e+00
  -3.3349600e+00
  -3.3105500e+00
  -3.4277300e+00
  -3.3886700e+00
  -3.3544900e+00
  -3.3886700e+00
  -3.3984400e+00
  -3.4082000e+00
  -3.3691400e+00
  -3.4619100e+00
  -3.4375000e+00
  -3.4130900e+00
  -3.4472700e+00
  -3.4570300e+00
  -3.4668000e+00
  -3.4423800e+00
  -3.5009800e+00
  -3.5107400e+00
  -3.4668000e+00
  -3.4814500e+00
  -3.5595700e+00
  -3.5302700e+00
  -3.5253900e+00
  -3.5351600e+00
  -3.5351600e+00
  -3.5400400e+00
  -3.5351600e+00
  -3.6035200e+00
  -3.5693400e+00
  -3.5644500e+00
  -3.5351600e+00
  -3.5937500e+00
  -3.6181600e+00
  -3.5888700e+00
  -3.6865200e+00
  -3.6669900e+00
  -3.6572300e+00
  -3.6767600e+00
  -3.7353500e+00
  -3.6572300e+00
  -3.6914100e+00
  -3.6523400e+00
  -3.6474600e+00
  -3.6669900e+00
  -3.7011700e+00
  -3.7402300e+00
  -3.6962900e+00
  -3.7207000e+00
  -3.7158200e+00
  -3.7011700e+00
  -3.7207000e+00
  -3.7548800e+00
  -3.8232400e+00
  -3.7402300e+00
  -3.7402300e+00
  -3.7597700e+00
  -3.8085900e+00
  -3.7500000e+00
  -3.7744100e+00
  -3.7939500e+00
  -3.8232400e+00
  -3.7646500e+00
  -3.7939500e+00
  -3.8378900e+00
  -3.7744100e+00
  -3.7793000e+00
  -3.8232400e+00
  -3.7890600e+00
  -3.7744100e+00
  -3.8134800e+00
  -3.8427700e+00
  -3.8037100e+00
  -3.8037100e+00
  -3.8330100e+00
  -3.8525400e+00
  -3.7988300e+00
  -3.8183600e+00
  -3.8916000e+00
  -3.8671900e+00
  -3.7841800e+00
  -3.8037100e+00
  -3.8476600e+00
  -3.8232400e+00
  -3.7939500e+00
  -3.8525400e+00
  -3.8525400e+00
  -3.8183600e+00
  -3.8281300e+00
  -3.8378900e+00
  -3.8037100e+00
  -3.7597700e+00
  -3.7939500e+00
  -3.8134800e+00
  -3.7841800e+00
  -3.7500000e+00
  -3.8378900e+00
  -3.7255900e+00
  -3.7304700e+00
  -3.7011700e+00
  -3.7207000e+00
  -3.7207000e+00
  -3.7451200e+00
  -3.7255900e+00
  -3.7353500e+00
  -3.7060500e+00
  -3.6962900e+00
  -3.7353500e+00
  -3.7109400e+00
  -3.6669900e+00
  -3.7011700e+00
  -3.7060500e+00
  -3.6621100e+00
  -3.6816400e+00
  -3.6816400e+00
  -3.6767600e+00
  -3.6279300e+00
  -3.6328100e+00
  -3.6572300e+00
  -3.5888700e+00
  -3.6425800e+00
  -3.6523400e+00
  -3.6132800e+00
  -3.5839800e+00
  -3.5937500e+00
  -3.6328100e+00
  -3.5986300e+00
  -3.5791000e+00
  -3.6279300e+00
  -3.5839800e+00
  -3.5498000e+00
  -3.5595700e+00
  -3.5986300e+00
  -3.5888700e+00
  -3.5888700e+00
  -3.5253900e+00
  -3.5888700e+00
  -3.5351600e+00
  -3.5205100e+00
  -3.5937500e+00
  -3.5253900e+00
  -3.5400400e+00
  -3.5302700e+00
  -3.5644500e+00
  -3.5351600e+00
  -3.5205100e+00
  -3.6084000e+00
  -3.5742200e+00
  -3.5205100e+00
  -3.5644500e+00
  -3.5595700e+00
  -3.5400400e+00
  -3.5693400e+00
  -3.5937500e+00
  -3.5595700e+00
  -3.5595700e+00
  -3.5302700e+00
  -3.5742200e+00
  -3.5595700e+00
  -3.5449200e+00
  -3.5742200e+00
  -3.5937500e+00
  -3.5791000e+00
  -3.5644500e+00
  -3.6377000e+00
  -3.5937500e+00
  -3.6035200e+00
  -3.6328100e+00
  -3.6132800e+00
  -3.5937500e+00
  -3.5986300e+00
  -3.6328100e+00
  -3.6474600e+00
  -3.6279300e+00
  -3.6132800e+00
  -3.6914100e+00
  -3.6669900e+00
  -3.6621100e+00
  -3.6718800e+00
  -3.7158200e+00
  -3.6669900e+00
  -3.6377000e+00
  -3.7597700e+00
  -3.7402300e+00
  -3.6914100e+00
  -3.7158200e+00
  -3.7304700e+00
  -3.7548800e+00
  -3.7451200e+00
  -3.8134800e+00
  -3.7841800e+00
  -3.7500000e+00
  -3.7695300e+00
  -3.8232400e+00
  -3.7841800e+00
  -3.8085900e+00
  -3.8671900e+00
  -3.8134800e+00
  -3.8232400e+00
  -3.8037100e+00
  -3.9013700e+00
  -3.8574200e+00
  -3.8769500e+00
  -3.8671900e+00
  -3.9160200e+00
  -3.8916000e+00
  -3.8916000e+00
  -3.9502000e+00
  -3.9209000e+00
  -3.8964800e+00
  -3.9257800e+00
  -3.9599600e+00
  -3.9502000e+00
  -3.8964800e+00
  -3.9746100e+00
  -3.9697300e+00
  -3.9794900e+00
  -4.0087900e+00
  -4.0185500e+00
  -4.0234400e+00
  -3.9892600e+00
  -4.0332000e+00
  -4.0283200e+00
  -4.0136700e+00
  -4.0039100e+00
  -4.0283200e+00
  -4.0185500e+00
  -3.9892600e+00
  -4.0332000e+00
  -4.0283200e+00
  -4.0722700e+00
  -4.0136700e+00
  -4.0576200e+00
  -4.0527300e+00
  -4.0576200e+00
  -4.0673800e+00
  -4.0527300e+00
  -4.0332000e+00
  -4.0380900e+00
  -4.0869100e+00
  -4.0918000e+00
  -4.0576200e+00
  -4.0673800e+00
  -4.0771500e+00
  -4.0820300e+00
  -4.0625000e+00
  -4.0966800e+00
  -4.0429700e+00
  -4.0918000e+00
  -4.0625000e+00
  -4.1455100e+00
  -4.1210900e+00
  -4.0869100e+00
  -4.0771500e+00
  -4.1357400e+00
  -4.0625000e+00
  -4.0625000e+00
  -4.1113300e+00
  -4.0918000e+00
  -4.0820300e+00
  -4.0966800e+00
  -4.1259800e+00
  -4.0820300e+00
  -4.0722700e+00
  -4.0869100e+00
  -4.1113300e+00
  -4.0478500e+00
  -4.0527300e+00
  -4.1162100e+00
  -4.1113300e+00
  -4.0673800e+00
  -4.1162100e+00
  -4.1015600e+00
  -4.0820300e+00
  -4.0576200e+00
  -4.1308600e+00
  -4.0869100e+00
  -4.0918000e+00
  -4.1113300e+00
  -4.0869100e+00
  -4.0771500e+00
  -4.0918000e+00
  -4.1455100e+00
  -4.1308600e+00
  -4.0869100e+00
  -4.1015600e+00
  -4.1357400e+00
  -4.0722700e+00
  -4.0869100e+00
  -4.1015600e+00
  -4.1162100e+00
  -4.0918000e+00
  -4.0576200e+00
  -4.1210900e+00
  -4.0771500e+00
  -4.0869100e+00
  -4.1259800e+00
  -4.1064500e+00
  -4.1210900e+00
  -4.0820300e+00
  -4.1064500e+00
  -4.0722700e+00
  -4.0869100e+00
  -4.1113300e+00
  -4.1601600e+00
  -4.0820300e+00
  -4.0576200e+00
  -4.1503900e+00
  -4.1015600e+00
  -4.1015600e+00
  -4.1064500e+00
  -4.1210900e+00
  -4.0869100e+00
  -4.0966800e+00
  -4.0918000e+00
  -4.1015600e+00
  -4.0820300e+00
  -4.0625000e+00
  -4.1259800e+00
  -4.1064500e+00
  -4.1015600e+00
  -4.1503900e+00
  -4.1357400e+00
  -4.1210900e+00
  -4.0869100e+00
  -4.1552700e+00
  -4.1259800e+00
  -4.0820300e+00
  -4.1113300e+00
  -4.1210900e+00
  -4.1064500e+00
  -4.0966800e+00
  -4.1503900e+00
  -4.1650400e+00
  -4.1064500e+00
  -4.0771500e+00
  -4.1748000e+00
  -4.1406300e+00
  -4.0820300e+00
  -4.1308600e+00
  -4.1455100e+00
  -4.1308600e+00
  -4.1210900e+00
  -4.1601600e+00
  -4.1308600e+00
  -4.1064500e+00
  -4.1308600e+00
  -4.1406300e+00
  -4.1552700e+00
  -4.0771500e+00
  -4.1748000e+00
  -4.1552700e+00
  -4.0966800e+00
  -4.1357400e+00
  -4.1357400e+00
  -4.1601600e+00
  -4.1308600e+00
  -4.1650400e+00
  -4.1259800e+00
  -4.1357400e+00
  -4.1064500e+00
  -4.1406300e+00
  -4.1210900e+00
  -4.1308600e+00
  -4.1894500e+00
  -4.1308600e+00
  -4.1357400e+00
  -4.1162100e+00
  -4.1845700e+00
  -4.1210900e+00
  -4.1699200e+00
  -4.1113300e+00
  -4.1406300e+00
  -4.1015600e+00
  -4.1406300e+00
  -4.1748000e+00
  -4.1552700e+00
  -4.1357400e+00
  -4.1455100e+00
  -4.1406300e+00
  -4.1259800e+00
  -4.1113300e+00
  -4.1845700e+00
  -4.1259800e+00
  -4.1552700e+00
  -4.1064500e+00
  -4.1503900e+00
  -4.1552700e+00
  -4.0966800e+00
  -4.1601600e+00
  -4.1552700e+00
  -4.1455100e+00
  -4.1015600e+00
  -4.1552700e+00
  -4.1406300e+00
  -4.1259800e+00
  -4.1259800e+00
  -4.1406300e+00
  -4.1308600e+00
  -4.1210900e+00
  -4.1796900e+00
  -4.1210900e+00
  -4.1552700e+00
  -4.1601600e+00
  -4.1650400e+00
  -4.1503900e+00
  -4.0966800e+00
  -4.1455100e+00
  -4.1259800e+00
  -4.1259800e+00
  -4.1113300e+00
  -4.1650400e+00
  -4.1357400e+00
  -4.0869100e+00
  -4.0966800e+00
  -4.1796900e+00
  -4.1308600e+00
  -4.1357400e+00
  -4.1845700e+00
  -4.1259800e+00
  -4.1015600e+00
  -4.1552700e+00
  -4.1162100e+00
  -4.1308600e+00
  -4.1162100e+00
  -4.1455100e+00
  -4.1259800e+00
  -4.1064500e+00
  -4.1113300e+00
  -4.1601600e+00
  -4.1308600e+00
  -4.1210900e+00
  -4.1015600e+00
  -4.1406300e+00
  -4.0869100e+00
  -4.1162100e+00
  -4.1552700e+00
  -4.1455100e+00
  -4.1064500e+00
  -4.1259800e+00
  -4.1308600e+00
  -4.1308600e+00
  -4.0869100e+00
  -4.1699200e+00
  -4.1357400e+00
  -4.1113300e+00
  -4.1259800e+00
  -4.1552700e+00
  -4.1357400e+00
  -4.0673800e+00
  -4.1650400e+00
  -4.1259800e+00
  -4.1455100e+00
  -4.1113300e+00
  -4.1552700e+00
  -4.1113300e+00
  -4.1259800e+00
  -4.1406300e+00
  -4.1357400e+00
  -4.1162100e+00
  -4.1162100e+00
  -4.1503900e+00
  -4.1357400e+00
  -4.1259800e+00
  -4.1455100e+00
  -4.1748000e+00
  -4.1015600e+00
  -4.1259800e+00
  -4.1894500e+00
  -4.1210900e+00
  -4.1455100e+00
  -4.1503900e+00
  -4.1308600e+00
  -4.1259800e+00
  -4.1357400e+00
  -4.1796900e+00
  -4.1406300e+00
  -4.1357400e+00
  -4.1064500e+00
  -4.1503900e+00
  -4.1455100e+00
  -4.1455100e+00
  -4.1796900e+00
  -4.1845700e+00
  -4.1308600e+00
  -4.1601600e+00
  -4.1406300e+00
  -4.1357400e+00
  -4.0966800e+00
  -4.1113300e+00
  -4.1601600e+00
  -4.1210900e+00
  -4.1113300e+00
  -4.1699200e+00
  -4.1503900e+00
  -4.1210900e+00
  -4.1406300e+00
  -4.1552700e+00
  -4.1796900e+00
  -4.1259800e+00
  -4.1406300e+00
  -4.1308600e+00
  -4.1113300e+00
  -4.1308600e+00
  -4.1992200e+00
  -4.1064500e+00
  -4.1406300e+00
  -4.1650400e+00
  -4.1796900e+00
  -4.1503900e+00
  -4.1455100e+00
  -4.1943400e+00
  -4.1650400e+00
  -4.1406300e+00
  -4.1406300e+00
  -4.2041000e+00
  -4.1455100e+00
  -4.1552700e+00
  -4.2089800e+00
  -4.1552700e+00
  -4.1748000e+00
  -4.1748000e+00
  -4.1894500e+00
  -4.1357400e+00
  -4.1601600e+00
  -4.1845700e+00
  -4.1845700e+00
  -4.1503900e+00
  -4.1259800e+00
  -4.1943400e+00
  -4.1699200e+00
  -4.1406300e+00
  -4.1894500e+00
  -4.1552700e+00
  -4.1308600e+00
  -4.1162100e+00
  -4.1943400e+00
  -4.1357400e+00
  -4.1796900e+00
  -4.1748000e+00
  -4.1748000e+00
  -4.1699200e+00
  -4.1601600e+00
  -4.1992200e+00
  -4.1650400e+00
  -4.1601600e+00
  -4.1210900e+00
  -4.1943400e+00
  -4.1308600e+00
  -4.0966800e+00
  -4.1406300e+00
  -4.1748000e+00
  -4.1894500e+00
  -4.1064500e+00
  -4.1992200e+00
  -4.1552700e+00
  -4.0966800e+00
  -4.1503900e+00
  -4.1943400e+00
  -4.1650400e+00
  -4.1503900e+00
  -4.1748000e+00
  -4.1845700e+00
  -4.1259800e+00
  -4.1552700e+00
  -4.1796900e+00
  -4.1601600e+00
  -4.1064500e+00
  -4.1455100e+00
  -4.1406300e+00
  -4.1650400e+00
  -4.1748000e+00
  -4.1503900e+00
  -4.1357400e+00
  -4.1650400e+00
  -4.1748000e+00
  -4.1552700e+00
  -4.1406300e+00
  -4.1503900e+00
  -4.1601600e+00
  -4.1699200e+00
  -4.1406300e+00
  -4.1699200e+00
  -4.1894500e+00
  -4.1015600e+00
  -4.1552700e+00
  -4.1845700e+00
  -4.2089800e+00
  -4.1259800e+00
  -4.1650400e+00
  -4.1699200e+00
  -4.1650400e+00
  -4.1601600e+00
  -4.1796900e+00
  -4.1601600e+00
  -4.1503900e+00
  -4.1406300e+00
  -4.1943400e+00
  -4.1406300e+00
  -4.1455100e+00
  -4.1894500e+00
  -4.1894500e+00
  -4.1552700e+00
  -4.1308600e+00
  -4.1894500e+00
  -4.1455100e+00
  -4.1064500e+00
  -4.1259800e+00
  -4.1650400e+00
  -4.1552700e+00
  -4.1503900e+00
  -4.1650400e+00
  -4.1748000e+00
  -4.1455100e+00
  -4.1259800e+00
  -4.1796900e+00
  -4.1455100e+00
  -4.1406300e+00
  -4.1455100e+00
  -4.1650400e+00
  -4.1406300e+00
  -4.1406300e+00
  -4.2041000e+00
  -4.1357400e+00
  -4.1503900e+00
  -4.1552700e+00
  -4.1503900e+00
  -4.1357400e+00
  -4.1113300e+00
  -4.1699200e+00
  -4.1552700e+00
  -4.1210900e+00
  -4.1699200e+00
  -4.1943400e+00
  -4.1748000e+00
  -4.1357400e+00
  -4.2138700e+00
  -4.1796900e+00
  -4.1796900e+00
  -4.1113300e+00
  -4.1601600e+00
  -4.1015600e+00
  -4.1552700e+00
  -4.1552700e+00
  -4.1699200e+00
  -4.1552700e+00
  -4.1455100e+00
  -4.1650400e+00
  -4.1308600e+00
  -4.1064500e+00
  -4.1699200e+00
  -4.1552700e+00
  -4.1210900e+00
  -4.1406300e+00
  -4.1406300e+00
  -4.1357400e+00
  -4.1210900e+00
  -4.1162100e+00
  -4.1845700e+00
  -4.1455100e+00
  -4.1162100e+00
  -4.1357400e+00
  -4.1503900e+00
  -4.1308600e+00
  -4.1162100e+00
  -4.1601600e+00
  -4.1064500e+00
  -4.1064500e+00
  -4.1601600e+00
  -4.1259800e+00
  -4.1552700e+00
  -4.1015600e+00
  -4.1308600e+00
  -4.1406300e+00
  -4.0869100e+00
  -4.1259800e+00
  -4.1455100e+00
  -4.1064500e+00
  -4.0966800e+00
  -4.1210900e+00
  -4.0966800e+00
  -4.0722700e+00
