0.368652	-0.235596	1.546173
0.560913	0.597382	2.094421
0.412598	0.875397	2.295074
-0.130920	-0.506744	1.965942
-0.782776	0.193787	1.658020
-0.479889	-0.161133	1.531677
0.311127	0.162201	1.886139
0.448761	0.763702	2.696381
-0.440674	-0.802307	1.628876
-0.404816	0.603790	1.650085
0.901337	0.017395	2.376709
-0.516205	0.523224	2.163696
-0.758820	-0.790253	1.505585
0.167084	1.083527	2.301331
-0.423126	-0.637817	2.027283
-0.206299	0.480804	1.773834
0.552826	0.269470	2.068939
-0.357666	-0.294342	2.278900
-0.222168	0.695496	1.965942
0.534515	-0.348053	2.238312
-0.617371	0.370331	2.201080
0.815430	0.080109	2.512054
-0.194702	-0.230865	1.409912
0.153961	0.973358	2.722473
-0.015717	-0.929871	1.916656
0.957031	0.794220	2.097168
-0.648346	-0.014496	1.453552
0.319672	-0.031281	2.474976
0.119476	-0.126038	2.297668
0.246277	0.997162	2.835846
-0.319672	-0.330048	1.603546
-0.238647	-0.340576	1.986542
0.279236	0.374451	1.510925
-1.128693	0.276337	1.480255
-0.335388	0.661163	2.265320
-0.476685	-0.475464	1.497498
-0.297241	-0.465851	2.006836
0.102844	0.502777	2.419128
-1.023865	-0.054626	1.532745
-0.217438	0.297394	1.925201
0.011902	1.036072	2.171021
0.349274	0.550842	1.344299
-0.781860	0.054626	1.258698
-0.312347	0.401306	2.086334
0.404205	0.679932	2.569275
0.164337	0.152588	2.605133
-0.114594	-0.206604	2.427979
0.201569	-0.022888	2.113037
0.727844	0.351868	1.958466
0.808105	0.366516	2.225494
0.322418	0.112152	2.780304
-0.382996	-0.119781	2.005920
-0.817261	0.062561	1.259003
-0.638580	0.402679	2.370453
-0.108185	0.540466	3.072815
0.340271	0.553436	1.954803
0.675659	0.502625	2.767944
0.693970	0.166168	2.989197
0.604401	0.411987	1.741028
0.432129	0.593872	3.048553
0.322723	0.521545	1.691589
0.333099	0.226593	2.560883
0.318298	-0.179749	1.978149
0.331726	0.213013	2.378540
0.103455	0.529022	2.113800
-0.112152	0.303040	2.492523
-0.300446	0.037689	2.012482
-0.283051	0.487671	3.080292
-0.108185	0.735626	1.945953
-0.131226	0.240173	3.410339
-0.242310	0.314636	2.075958
-0.313873	0.418396	2.376404
-0.477600	-0.268097	2.878571
-0.627899	0.087891	1.422577
-0.519562	0.022125	2.194977
-0.359192	-0.063477	2.873688
-0.105286	0.779266	2.055817
0.054779	0.171814	2.301636
0.193024	0.457001	2.944946
-0.162659	-0.350342	2.555237
-0.385590	0.260162	1.874237
0.248566	0.351410	1.961212
0.287018	0.280457	2.518768
-0.240173	0.062408	2.859955
-0.250854	0.128937	2.822571
0.340271	0.404816	2.734985
0.126495	0.314331	2.247620
-0.407562	-0.259552	1.656647
-0.455780	0.508270	1.838226
-0.225983	0.279388	2.016602
-0.355225	-0.046539	1.800232
0.126190	0.204163	2.096405
-0.077667	-0.167847	2.341156
-0.518036	0.145111	1.923981
0.319061	0.456848	2.285919
0.028534	0.281830	2.147064
-0.086823	0.209656	2.006836
0.042267	0.264435	2.064667
-0.341797	0.080872	1.920013
0.505066	0.527954	2.771454
-0.606232	0.064087	2.543793
0.509491	0.505524	3.076324
-0.519714	0.111542	2.640228
0.304260	0.389252	2.289429
-0.444183	0.090790	2.117157
0.399628	0.377045	2.578125
-0.615997	0.046234	2.763062
0.412292	0.589447	2.846222
-0.451813	0.106201	1.941223
-0.222626	0.253906	2.613373
-0.126038	0.219116	2.852173
-0.137177	0.302277	2.417755
-0.165863	0.224762	2.003021
-0.323792	0.084686	2.063751
-0.093536	0.294952	2.692719
-0.048370	0.281830	2.693939
-0.391235	0.183411	2.252960
-0.032043	0.226593	2.021179
-0.012054	0.241241	1.981812
-0.111084	0.175323	2.267303
-0.013885	0.235138	2.542877
0.019836	0.172119	2.620850
-0.107880	0.142059	2.502899
-0.351868	0.238342	2.338104
-0.086365	0.250702	1.961517
-0.134277	0.278931	1.794434
-0.133972	0.282288	1.708374
-0.033112	0.184021	1.766815
-0.133362	0.186920	1.953430
-0.083923	0.318756	2.268219
-0.077667	0.313263	2.263489
0.026093	0.418243	2.362671
-0.151978	0.206146	2.374725
-0.124512	0.185089	2.431793
-0.107269	0.168304	2.361755
-0.103760	0.229034	2.388611
-0.018616	0.402222	2.337494
-0.112000	0.282745	2.361298
-0.110321	0.133820	2.330017
-0.080719	0.204010	2.341919
-0.233459	0.211029	2.298126
-0.057373	0.194244	2.244873
-0.052795	0.187073	2.258606
-0.036163	0.264130	2.150421
-0.041351	0.242157	1.972046
-0.048523	0.183258	1.761627
-0.089264	0.266266	1.523743
-0.110016	0.516357	1.326447
-0.084534	0.089874	1.293640
0.074005	0.249481	1.397400
-0.082245	0.229187	1.588440
-0.113678	0.095673	1.839905
-0.096588	0.254059	2.080078
-0.068054	0.282135	1.639099
-0.079498	0.221558	1.045380
-0.046387	0.193787	1.737061
-0.025787	0.211639	1.886749
-0.007324	0.149689	0.973358
-0.022736	0.252991	1.810455
-0.059662	0.201721	1.361084
-0.095825	0.146790	1.331482
-0.093842	0.205231	1.586761
-0.088654	0.360565	1.192322
-0.083160	0.222626	1.391144
-0.117187	0.055542	1.379395
-0.086212	0.233154	0.988922
-0.073700	0.182037	1.809235
-0.085297	0.148163	0.721741
-0.064392	0.204163	1.464539
-0.041656	0.210571	1.585236
-0.029449	0.213776	0.712433
-0.014343	0.131683	0.913086
-0.001373	0.147705	1.587219
0.009003	0.162048	1.435242
-0.012665	0.432892	0.812531
-0.052643	0.211029	0.614166
-0.077667	0.034790	0.887909
-0.077362	0.177460	1.177826
-0.072632	0.364075	1.352386
-0.091553	0.174408	1.471863
-0.126038	0.142822	1.406250
-0.125732	0.223694	1.213684
-0.077972	0.347900	1.107178
-0.079803	0.186157	1.003265
-0.173492	0.136719	0.954132
-0.185394	0.204315	1.018372
-0.358734	0.191956	1.080627
-0.106201	0.098877	1.208496
-0.081482	0.120697	1.188202
-0.108643	0.073700	0.921783
-0.106812	0.028229	0.732422
-0.085907	0.179291	0.458984
-0.054932	0.199585	0.525055
-0.066071	0.201416	0.700378
-0.100098	0.140533	1.100159
-0.072784	0.025787	0.854492
-0.055084	0.106812	0.581207
-0.062561	0.176544	0.496521
-0.082092	0.176392	0.689240
-0.063477	0.161133	0.683594
-0.041809	0.139771	0.669403
-0.041046	0.095215	0.634766
-0.058594	0.090179	0.614777
-0.086670	0.080719	0.598755
-0.077820	0.084534	0.578003
-0.037689	0.051422	0.554047
-0.037079	0.069275	0.546722
-0.069427	0.094604	0.495758
-0.082703	0.145569	0.492249
-0.109711	0.105286	0.452118
-0.103149	0.106506	0.445709
-0.098572	0.100861	0.423737
-0.086060	0.104523	0.403900
-0.068817	0.124817	0.389862
-0.043488	0.153961	0.366211
-0.018005	0.133667	0.373077
-0.072327	0.090942	0.339813
-0.095673	0.075989	0.333557
-0.095825	0.088654	0.301971
-0.110016	0.131378	0.275879
-0.129395	0.129852	0.242157
-0.106354	0.097809	0.237579
-0.094604	0.036469	0.202179
-0.076904	0.059052	0.181580
-0.061493	0.076752	0.164795
-0.100250	0.099030	0.128021
-0.137939	0.118713	0.100098
-0.180054	0.082245	0.071259
-0.184326	0.086212	0.050354
-0.182343	0.117187	0.024719
-0.176544	0.142822	-0.014191
-0.163727	0.100861	-0.043182
-0.163879	0.065155	-0.079956
-0.083771	0.056305	-0.120544
0.035248	0.073547	-0.166473
-0.051422	0.089874	-0.205688
-0.298615	0.128784	-0.249634
-0.471344	0.103760	-0.303650
-0.530396	0.068512	-0.347290
-0.721588	0.035248	-0.411835
-0.931244	0.055084	-0.451660
-0.777740	0.104675	-0.507050
-0.259247	0.084839	-0.571747
0.479584	0.117798	-0.619812
0.774231	0.081177	-0.659790
0.501251	0.101929	-0.727539
0.288544	0.124969	-0.768585
0.362244	0.154266	-0.818634
0.470886	0.114441	-0.874939
0.514984	0.128479	-0.920868
0.578613	0.127106	-0.990295
0.615692	0.108643	-1.028900
0.436707	0.143433	-1.076508
0.017242	0.152435	-1.140594
-0.491028	0.153046	-1.181946
-0.840607	0.098572	-1.222229
-1.038055	0.073242	-1.285400
-1.110992	0.097351	-1.350250
-1.098328	0.123901	-1.405640
-0.900879	0.126495	-1.472015
-0.426636	0.120239	-1.497955
0.165863	0.099945	-1.561584
0.711212	0.092621	-1.598358
1.047821	0.158844	-1.590271
1.074524	0.153503	-1.626282
0.880127	0.124359	-1.590729
0.520172	0.121307	-1.547241
0.144958	0.102386	-1.518555
-0.202026	0.105286	-1.444855
-0.522614	0.160370	-1.349182
-0.721588	0.108490	-1.290131
-0.770111	0.089569	-1.238556
-0.643768	0.053864	-1.134186
-0.462341	0.008698	-1.076965
-0.221100	0.050201	-1.033173
0.036621	0.103760	-0.983582
0.220032	0.124359	-0.965729
0.305481	0.107727	-0.950012
0.317078	0.110779	-0.956268
0.272675	0.104218	-0.962677
0.171661	0.155640	-0.973206
0.061035	0.140381	-0.999146
-0.041809	0.120544	-1.008148
-0.141449	0.083008	-1.022491
-0.243988	0.082397	-1.045685
-0.307312	0.105133	-1.036987
-0.350494	0.138702	-1.045990
-0.401154	0.103760	-1.036072
-0.371399	0.052032	-1.010895
-0.298157	0.052185	-1.006165
-0.190430	0.075226	-1.010437
-0.063324	0.138702	-0.985565
0.020599	0.131683	-0.976868
0.035400	0.119934	-0.969849
0.060272	0.059814	-0.922546
0.101166	0.046844	-0.895844
0.075531	0.077362	-0.858917
0.005341	0.139771	-0.835266
-0.091095	0.132599	-0.852966
-0.196075	0.104980	-0.874634
-0.257721	0.082550	-0.925293
-0.260162	0.089569	-0.891876
-0.283203	0.138550	-0.870667
-0.270691	0.134888	-0.846405
-0.204468	0.084381	-0.840759
-0.118408	0.041504	-0.862427
-0.051575	0.078430	-0.887299
-0.006714	0.112305	-0.893250
0.021973	0.156708	-0.896912
0.090790	0.170898	-0.880585
0.145111	0.098724	-0.885620
0.192719	0.046234	-0.879974
0.203705	0.098419	-0.854340
0.180664	0.146179	-0.857239
0.126343	0.149231	-0.823822
0.051575	0.112000	-0.818939
-0.017853	0.077515	-0.821686
-0.085754	0.083618	-0.820618
-0.132446	0.079651	-0.806427
-0.180969	0.094452	-0.799408
-0.249634	0.079651	-0.811005
-0.302124	0.076141	-0.781097
-0.303802	0.047607	-0.749969
-0.252838	0.100250	-0.733643
-0.209198	0.143280	-0.713196
-0.217438	0.148163	-0.707855
-0.242157	0.123749	-0.733185
-0.222321	0.089417	-0.730591
-0.127716	0.105743	-0.710144
-0.041199	0.115204	-0.708923
0.009460	0.169373	-0.729980
0.018005	0.144196	-0.709076
0.028229	0.112610	-0.707245
0.032501	0.099640	-0.732727
0.001678	0.106812	-0.736237
-0.081177	0.107574	-0.743256
-0.159760	0.147705	-0.737152
-0.209351	0.101624	-0.746613
-0.176239	0.038910	-0.726471
-0.159149	0.022430	-0.744781
-0.175781	0.033875	-0.745544
-0.183563	0.088501	-0.724335
-0.146332	0.124969	-0.716858
-0.047760	0.141296	-0.722046
0.011597	0.098572	-0.712128
0.040131	0.118866	-0.707550
0.028381	0.128021	-0.697479
0.054626	0.155182	-0.691376
0.086975	0.163422	-0.691223
0.032806	0.137329	-0.679626
-0.057526	0.109711	-0.686646
-0.088654	0.091858	-0.695190
-0.062714	0.126495	-0.692902
-0.088348	0.117340	-0.695038
-0.105438	0.112762	-0.703735
-0.087280	0.057831	-0.728149
-0.060425	0.053253	-0.724335
-0.076447	0.090790	-0.723114
-0.138092	0.143890	-0.718689
-0.227203	0.127563	-0.731659
-0.242767	0.099945	-0.722351
-0.199585	0.092468	-0.707092
-0.138550	0.098572	-0.709076
-0.136414	0.141907	-0.731964
-0.140381	0.178986	-0.721893
-0.157166	0.137634	-0.705566
-0.142670	0.070953	-0.709839
-0.105591	0.061951	-0.740051
-0.075226	0.047302	-0.729523
-0.063629	0.127258	-0.723267
-0.064087	0.140076	-0.735779
-0.092010	0.102386	-0.737915
-0.104675	0.057983	-0.733185
-0.128326	0.072479	-0.735779
-0.135345	0.082245	-0.732880
-0.113831	0.112915	-0.751343
-0.080566	0.122986	-0.784302
-0.048218	0.065918	-0.788116
-0.007935	0.059967	-0.788727
0.035400	0.093384	-0.789490
0.038147	0.149841	-0.802917
0.021210	0.144501	-0.813751
-0.000458	0.116730	-0.807800
-0.048523	0.096588	-0.806427
-0.099792	0.119476	-0.821991
-0.123901	0.159302	-0.803986
-0.152588	0.147095	-0.815430
-0.172119	0.087738	-0.833588
-0.168610	0.034332	-0.839081
-0.138245	0.034485	-0.848999
-0.083160	0.077515	-0.841980
-0.057831	0.126190	-0.836029
-0.081177	0.131073	-0.854187
-0.091705	0.119476	-0.862579
-0.045319	0.085449	-0.841370
-0.028381	0.088043	-0.861969
-0.014038	0.115509	-0.875854
-0.052032	0.150452	-0.876617
-0.113373	0.139160	-0.871887
-0.130005	0.090942	-0.877991
-0.122223	0.070190	-0.886230
-0.099182	0.081329	-0.906067
-0.094452	0.092926	-0.920563
-0.101471	0.130463	-0.911255
-0.089111	0.090332	-0.922089
-0.090179	0.022125	-0.925293
-0.113983	0.025787	-0.935211
-0.138855	0.089569	-0.953522
-0.148773	0.116119	-0.955200
-0.144196	0.140228	-0.962372
-0.137024	0.102692	-0.948639
-0.137329	0.059509	-0.961914
-0.127869	0.062714	-0.968781
-0.054321	0.125275	-0.991669
0.010376	0.119476	-1.009674
0.027924	0.094147	-1.003571
-0.001373	0.044098	-1.022644
-0.021667	0.041504	-1.026306
-0.014343	0.069427	-1.014557
-0.005951	0.123596	-1.008759
-0.041199	0.140839	-1.026917
-0.085297	0.084076	-1.042328
-0.111542	0.040741	-1.053162
-0.109253	0.071411	-1.079712
-0.137787	0.083466	-1.090546
-0.194550	0.083313	-1.115112
-0.211029	0.075836	-1.127472
-0.183105	0.051422	-1.125641
-0.108643	0.079193	-1.121979
-0.084991	0.118256	-1.144562
-0.085754	0.147552	-1.148376
-0.072174	0.102539	-1.164856
-0.059814	0.064850	-1.160889
-0.073395	0.071716	-1.175232
-0.081024	0.093079	-1.187439
-0.091248	0.120697	-1.190033
-0.088348	0.150604	-1.181641
-0.121765	0.112000	-1.210480
-0.141144	0.024872	-1.230927
-0.162048	0.011444	-1.236877
-0.175476	0.045776	-1.239014
-0.169830	0.094757	-1.238403
-0.163422	0.112610	-1.253204
-0.126343	0.121460	-1.259308
-0.091553	0.095825	-1.272736
-0.041504	0.092926	-1.258392
-0.002136	0.125427	-1.259155
0.000458	0.115814	-1.292572
-0.021820	0.084534	-1.290131
-0.029449	0.076599	-1.287384
-0.071716	0.032806	-1.311951
-0.037994	0.078888	-1.294098
-0.013885	0.126495	-1.312714
0.003662	0.144196	-1.311493
-0.014343	0.093079	-1.333771
-0.048218	0.015564	-1.352234
-0.036011	0.060883	-1.342163
-0.055389	0.102081	-1.375122
-0.100555	0.130463	-1.376648
-0.164337	0.136566	-1.407928
-0.188293	0.113831	-1.407776
-0.156097	0.086670	-1.414185
-0.152435	0.077820	-1.429138
-0.127716	0.171509	-1.427612
-0.097809	0.180511	-1.429596
-0.066071	0.147247	-1.445770
-0.050049	0.103302	-1.429138
-0.057831	0.085297	-1.461029
-0.064087	0.100098	-1.467285
-0.059509	0.148926	-1.482849
-0.019836	0.161896	-1.455841
-0.008240	0.082092	-1.493378
-0.032196	0.068512	-1.496735
-0.088501	0.081940	-1.505280
-0.092926	0.097198	-1.517181
-0.099945	0.086365	-1.509857
-0.122070	0.073090	-1.530914
-0.098114	0.111237	-1.528778
-0.103149	0.125122	-1.536560
-0.090332	0.171051	-1.560974
-0.059052	0.202637	-1.537170
-0.041809	0.132294	-1.547241
-0.067291	0.083466	-1.567078
-0.070953	0.090485	-1.553040
-0.073700	0.094147	-1.566010
-0.066223	0.133820	-1.575012
-0.064697	0.198822	-1.562500
-0.109406	0.169220	-1.581573
-0.144806	0.076599	-1.593475
-0.124207	0.082703	-1.590424
-0.145721	0.083008	-1.599426
-0.127106	0.124207	-1.616058
-0.130157	0.117950	-1.624908
-0.110931	0.085297	-1.609192
-0.138397	0.068207	-1.626282
-0.124054	0.091095	-1.637268
-0.120544	0.143280	-1.630402
-0.092468	0.158539	-1.622162
-0.038605	0.123444	-1.626129
-0.022125	0.104980	-1.650696
-0.065918	0.101471	-1.654816
-0.095520	0.081329	-1.650848
-0.083466	0.107574	-1.666565
-0.056610	0.104523	-1.657562
-0.033722	0.085449	-1.671295
-0.041809	0.034180	-1.665039
-0.064240	0.072784	-1.669617
-0.101929	0.105133	-1.690521
-0.128174	0.113983	-1.686401
-0.151215	0.110016	-1.684418
-0.173035	0.043030	-1.700439
-0.160065	0.055389	-1.705322
-0.112152	0.106964	-1.691895
-0.086975	0.147247	-1.692810
-0.060425	0.110931	-1.682587
-0.060120	0.044556	-1.694183
-0.059357	0.043182	-1.692810
-0.066986	0.048828	-1.697845
-0.051117	0.100861	-1.709290
-0.029755	0.133514	-1.696930
-0.035400	0.123291	-1.720886
-0.035553	0.057068	-1.726227
-0.066681	0.027771	-1.751556
-0.104980	0.050812	-1.762848
-0.121918	0.080261	-1.757660
-0.168610	0.089264	-1.784973
-0.178375	0.104065	-1.784210
-0.153503	0.114899	-1.792603
-0.161438	0.097961	-1.801605
-0.186157	0.108337	-1.824493
-0.173340	0.132751	-1.840210
-0.132904	0.091553	-1.829224
-0.071564	0.068970	-1.839905
-0.087738	0.051727	-1.858063
-0.113068	0.082855	-1.847229
-0.126495	0.100555	-1.847839
-0.083160	0.107727	-1.850891
-0.049286	0.080872	-1.855621
-0.009613	0.042114	-1.845703
-0.025177	0.048676	-1.840515
-0.060577	0.069733	-1.846466
-0.062256	0.111847	-1.848602
-0.082703	0.116577	-1.847992
-0.095215	0.115662	-1.847534
-0.104065	0.100250	-1.845093
-0.099487	0.106354	-1.863251
-0.075684	0.151062	-1.851501
-0.099640	0.146484	-1.861877
-0.104980	0.112457	-1.871490
-0.121765	0.063324	-1.876221
-0.121155	0.087128	-1.882782
-0.089111	0.110168	-1.874084
-0.059204	0.145264	-1.874847
-0.011292	0.135651	-1.890106
0.003357	0.089569	-1.891479
-0.033722	0.040131	-1.892853
-0.054169	0.066223	-1.888733
-0.096130	0.131531	-1.898041
-0.111237	0.170746	-1.894684
-0.118103	0.141754	-1.893463
-0.113678	0.088806	-1.916504
-0.099487	0.092773	-1.895142
-0.080872	0.104675	-1.897125
-0.085449	0.169830	-1.891785
-0.089722	0.113220	-1.885834
-0.090332	0.072174	-1.902313
-0.088806	0.082703	-1.895905
-0.111847	0.099945	-1.910858
-0.128021	0.128479	-1.916351
-0.082550	0.185089	-1.904602
-0.036469	0.166473	-1.927643
-0.001526	0.102997	-1.908569
-0.023956	0.072632	-1.907501
-0.047760	0.097351	-1.924591
-0.022736	0.146179	-1.901550
0.012207	0.157166	-1.904907
-0.000916	0.114746	-1.902008
-0.045624	0.060730	-1.894379
-0.036926	0.109711	-1.886292
-0.019379	0.151978	-1.884003
-0.041046	0.189056	-1.894073
-0.095062	0.139313	-1.894379
-0.146332	0.075684	-1.893463
-0.157318	0.052490	-1.897125
-0.142059	0.075684	-1.898651
-0.105133	0.095215	-1.880035
-0.079193	0.111694	-1.891632
-0.087891	0.075531	-1.888123
-0.088348	0.018158	-1.904144
-0.081024	0.060730	-1.886902
-0.083466	0.082550	-1.892700
-0.112610	0.119934	-1.902008
-0.088043	0.124512	-1.896362
-0.065155	0.102539	-1.896057
-0.039825	0.080566	-1.893005
-0.044556	0.100098	-1.894226
-0.049438	0.167084	-1.894836
-0.102539	0.151825	-1.889496
-0.147858	0.103607	-1.884613
-0.178528	0.057983	-1.870575
-0.177765	0.061188	-1.876678
-0.151215	0.078888	-1.873322
-0.114746	0.090637	-1.878510
-0.063477	0.081940	-1.874847
-0.029297	0.042877	-1.871490
-0.012817	0.019379	-1.899109
0.001526	0.071716	-1.870880
-0.030975	0.096283	-1.865234
-0.039978	0.102997	-1.848297
-0.060120	0.104675	-1.856232
-0.098267	0.082703	-1.843414
-0.151367	0.070648	-1.817474
-0.142975	0.111389	-1.805420
-0.114594	0.151825	-1.786652
-0.100708	0.145264	-1.779785
-0.115356	0.108032	-1.760864
-0.088806	0.093231	-1.767426
-0.042419	0.102386	-1.764526
-0.032654	0.118408	-1.752319
-0.064087	0.140076	-1.732635
-0.096588	0.103302	-1.720276
-0.099945	0.040283	-1.707916
-0.074005	0.042419	-1.711273
-0.050049	0.072327	-1.706238
-0.084229	0.121765	-1.703491
-0.119934	0.095215	-1.693115
-0.130768	0.086823	-1.675262
-0.125122	0.083008	-1.675262
-0.113373	0.125732	-1.669159
-0.099487	0.158539	-1.658478
-0.098419	0.165710	-1.639404
-0.108032	0.111694	-1.646576
-0.108185	0.077057	-1.638489
-0.128784	0.089264	-1.644440
-0.139771	0.102692	-1.617584
-0.143738	0.128174	-1.628571
-0.093384	0.127869	-1.632843
-0.036774	0.092773	-1.622467
-0.034790	0.039673	-1.610107
-0.046692	0.052185	-1.618195
-0.031891	0.092010	-1.599426
-0.038300	0.116272	-1.602173
-0.066376	0.101318	-1.597443
-0.083923	0.091553	-1.583862
-0.085144	0.077057	-1.574249
-0.076752	0.084381	-1.557617
-0.055084	0.129395	-1.563416
-0.071259	0.137939	-1.533813
-0.130310	0.098572	-1.529999
-0.156097	0.089722	-1.524200
-0.162048	0.098724	-1.511230
-0.140533	0.106201	-1.522522
-0.105438	0.124054	-1.498413
-0.104675	0.091095	-1.496124
-0.045624	0.062256	-1.496582
0.000305	0.007782	-1.478271
-0.011902	-0.000610	-1.490021
-0.037537	0.081177	-1.462097
-0.076904	0.115051	-1.475220
-0.076141	0.124817	-1.441040
-0.066681	0.101166	-1.457672
-0.057220	0.106659	-1.438141
-0.087128	0.111237	-1.421356
-0.089111	0.149078	-1.413574
-0.086823	0.122528	-1.399384
-0.079956	0.110931	-1.368866
-0.138702	0.079803	-1.378784
-0.157318	0.079498	-1.342163
-0.138550	0.091705	-1.349335
-0.074005	0.122528	-1.304779
-0.051727	0.122986	-1.287079
-0.074310	0.019989	-1.311340
-0.068207	0.057831	-1.287079
-0.064545	0.100403	-1.285248
-0.099182	0.137634	-1.260986
-0.102386	0.153809	-1.244965
-0.128021	0.116730	-1.260529
-0.130463	0.079498	-1.245575
-0.124207	0.093079	-1.224976
-0.094299	0.136871	-1.258392
-0.079956	0.152740	-1.269836
-0.062103	0.083313	-1.247253
-0.095825	0.055084	-1.235962
-0.118561	0.080719	-1.259003
-0.081177	0.104828	-1.235352
-0.076752	0.136414	-1.223907
-0.102386	0.104523	-1.219177
-0.086823	0.065765	-1.202850
-0.074310	0.022736	-1.197357
-0.048523	0.071106	-1.205292
-0.051727	0.088806	-1.204071
-0.046692	0.114136	-1.177979
-0.053253	0.112762	-1.180420
-0.038910	0.067444	-1.196289
-0.054626	0.036926	-1.164856
-0.080719	0.086975	-1.153717
-0.124664	0.150757	-1.174774
-0.121002	0.156708	-1.171722
-0.103149	0.134583	-1.174622
-0.109406	0.088043	-1.168060
-0.136414	0.063019	-1.163635
-0.115814	0.103302	-1.170502
-0.072937	0.152130	-1.159668
-0.084839	0.116425	-1.159210
-0.101318	0.074768	-1.146698
-0.110016	0.046844	-1.162720
-0.089722	0.076752	-1.161346
-0.062561	0.112457	-1.154175
-0.074768	0.110779	-1.149750
-0.082245	0.128632	-1.135406
-0.061798	0.093231	-1.122742
-0.033875	0.102692	-1.119080
-0.033569	0.109406	-1.109924
-0.018158	0.145264	-1.090088
-0.023804	0.136719	-1.074066
-0.075836	0.095673	-1.076202
-0.122986	0.082703	-1.086273
-0.160522	0.088501	-1.085052
-0.166473	0.121155	-1.064758
-0.154877	0.118561	-1.045380
-0.153809	0.075073	-1.050568
-0.129547	0.019226	-1.030731
-0.104523	0.020142	-1.012726
-0.107880	0.077820	-1.017609
-0.111084	0.122681	-1.017914
-0.096436	0.134735	-1.007385
-0.077515	0.126038	-1.012115
-0.044861	0.096588	-0.991669
-0.036316	0.096588	-0.976410
-0.064697	0.125885	-0.982208
-0.068054	0.131378	-0.963898
-0.071716	0.092621	-0.968170
-0.064087	0.086365	-0.953522
-0.085297	0.090942	-0.947723
-0.104218	0.108490	-0.946655
-0.081024	0.142517	-0.953827
-0.052338	0.108490	-0.958099
-0.037537	0.101471	-0.943451
-0.082092	0.030212	-0.951843
-0.118103	0.074310	-0.944214
-0.123901	0.105438	-0.952301
-0.120392	0.124359	-0.950470
-0.123596	0.114594	-0.944977
-0.109711	0.090637	-0.923157
-0.070038	0.090790	-0.915375
-0.034332	0.109406	-0.908508
-0.027771	0.147095	-0.891418
-0.043945	0.135345	-0.880432
-0.105133	0.109558	-0.874939
-0.151672	0.091095	-0.853119
-0.167236	0.104065	-0.861053
-0.202484	0.122375	-0.864105
-0.199127	0.138397	-0.867157
-0.143738	0.138550	-0.849457
-0.096741	0.072632	-0.841064
-0.078583	0.052643	-0.830994
-0.057373	0.102997	-0.835114
-0.057678	0.154724	-0.838776
-0.063477	0.147705	-0.819397
-0.082855	0.105438	-0.818634
-0.069733	0.059509	-0.830536
-0.067444	0.092773	-0.837250
-0.085754	0.137482	-0.850525
-0.084686	0.186310	-0.838928
-0.049591	0.137329	-0.833893
-0.035553	0.116119	-0.825500
-0.057373	0.119171	-0.842743
-0.092316	0.134735	-0.844574
-0.108032	0.158386	-0.836334
-0.073090	0.145721	-0.822144
-0.039520	0.101471	-0.842743
-0.048676	0.039673	-0.856781
-0.077972	0.112305	-0.851288
-0.091248	0.136719	-0.845337
-0.091858	0.157623	-0.834503
-0.074615	0.173187	-0.847015
-0.084229	0.154266	-0.839081
-0.083771	0.123291	-0.833435
-0.059357	0.144806	-0.828094
-0.062866	0.169067	-0.850983
-0.075226	0.156708	-0.852203
-0.088196	0.103302	-0.841370
-0.086975	0.071716	-0.828094
-0.051880	0.105591	-0.808258
-0.061798	0.114288	-0.807190
-0.108490	0.141144	-0.811615
-0.122375	0.137939	-0.812378
-0.075989	0.086975	-0.796509
-0.014343	0.021057	-0.802765
-0.018768	0.097656	-0.785980
-0.030212	0.147552	-0.761566
-0.071411	0.135498	-0.781403
-0.087128	0.130463	-0.793915
-0.114899	0.088959	-0.811615
-0.124359	0.101166	-0.787964
-0.125275	0.096588	-0.799561
-0.087128	0.179596	-0.787964
-0.047150	0.179443	-0.797119
-0.034943	0.149841	-0.797272
-0.088806	0.113831	-0.811157
-0.130310	0.098724	-0.831146
-0.140076	0.131378	-0.825653
-0.113678	0.171204	-0.831909
-0.067139	0.151672	-0.821686
-0.043182	0.077209	-0.823822
-0.045166	0.064850	-0.830841
-0.098267	0.111237	-0.830383
-0.156860	0.132294	-0.841522
-0.204315	0.152740	-0.829620
-0.221252	0.137634	-0.829620
-0.199280	0.123596	-0.820160
-0.139618	0.110168	-0.816345
-0.096130	0.136108	-0.805817
-0.088959	0.145264	-0.816956
-0.078735	0.121155	-0.814667
-0.080109	0.090637	-0.823669
-0.093536	0.093384	-0.817871
-0.109253	0.081940	-0.805206
-0.109863	0.127258	-0.805511
-0.091095	0.142670	-0.789948
-0.045013	0.121460	-0.788879
-0.040741	0.030518	-0.799408
-0.059204	0.048828	-0.807495
-0.080719	0.087128	-0.798035
-0.074768	0.097504	-0.787506
-0.064087	0.086670	-0.801849
-0.077362	0.084839	-0.818787
-0.109406	0.089417	-0.815125
-0.132294	0.100250	-0.823212
-0.109100	0.115967	-0.823669
-0.075226	0.116119	-0.822144
-0.069885	0.122833	-0.816193
-0.074615	0.073242	-0.820160
-0.096283	0.066376	-0.809479
-0.083618	0.089874	-0.799866
-0.060425	0.140381	-0.795135
-0.052032	0.120087	-0.764465
-0.049133	0.068359	-0.774689
-0.052032	0.026550	-0.770416
-0.090179	0.049133	-0.755768
-0.100250	0.107117	-0.748596
-0.113068	0.122833	-0.761414
-0.153656	0.148926	-0.753174
-0.171967	0.104828	-0.722351
-0.158997	0.077209	-0.717010
-0.158234	0.062714	-0.729218
-0.134583	0.136566	-0.710297
-0.152740	0.122070	-0.717468
-0.152740	0.110016	-0.694733
-0.131531	0.099030	-0.716705
-0.087585	0.124969	-0.713806
-0.074768	0.153046	-0.692749
-0.080719	0.149536	-0.689850
-0.051575	0.115662	-0.705566
-0.006866	0.056458	-0.702362
-0.013428	0.055695	-0.685272
-0.040894	0.118103	-0.691986
-0.061951	0.144806	-0.690918
-0.079346	0.128021	-0.690308
-0.041962	0.150757	-0.685120
-0.031128	0.142212	-0.694275
-0.062408	0.138855	-0.697174
-0.070038	0.192108	-0.675201
-0.058746	0.193329	-0.689697
-0.027008	0.147400	-0.691681
-0.024109	0.112762	-0.682526
-0.039978	0.126495	-0.685272
-0.076752	0.114899	-0.698242
-0.081024	0.144501	-0.697784
-0.057068	0.176239	-0.693054
-0.044098	0.122375	-0.688019
-0.057220	0.047455	-0.690002
-0.048523	0.110016	-0.684967
-0.021210	0.158844	-0.667725
-0.006104	0.167694	-0.660095
-0.019684	0.165405	-0.680695
-0.024719	0.112610	-0.670776
-0.049286	0.113831	-0.666809
-0.035706	0.146332	-0.670624
-0.066986	0.163727	-0.670776
-0.105133	0.159149	-0.678864
-0.144348	0.126648	-0.680695
-0.133667	0.088806	-0.673981
-0.136108	0.070038	-0.674896
-0.135345	0.092621	-0.670776
-0.132599	0.127258	-0.675354
-0.087433	0.113678	-0.665283
-0.019836	0.081940	-0.679932
0.017090	0.065765	-0.662842
0.005188	0.110779	-0.682678
-0.035095	0.140381	-0.652313
-0.113220	0.100555	-0.665283
-0.140839	0.074310	-0.675659
-0.122070	0.083466	-0.650787
-0.133514	0.125732	-0.653534
-0.162964	0.160980	-0.646515
-0.149689	0.174866	-0.642700
-0.128021	0.129547	-0.636139
-0.121613	0.097198	-0.653839
-0.104828	0.069580	-0.634308
-0.092773	0.079651	-0.648499
-0.066528	0.082245	-0.642853
-0.015259	0.085297	-0.637360
0.003967	0.086823	-0.624237
-0.018463	0.040894	-0.622253
-0.019531	0.068970	-0.626984
-0.018463	0.096436	-0.596161
-0.032806	0.144958	-0.584869
-0.095520	0.115662	-0.600128
-0.139771	0.075836	-0.566406
-0.140991	0.023346	-0.555573
-0.140381	0.031586	-0.547485
-0.127258	0.142975	-0.549011
-0.139313	0.170288	-0.533752
-0.124207	0.161591	-0.524445
-0.103607	0.142212	-0.500031
-0.106659	0.134125	-0.509949
-0.105133	0.102234	-0.504150
-0.111237	0.142517	-0.500641
-0.100098	0.133209	-0.497437
-0.052185	0.106354	-0.495453
-0.008087	0.066833	-0.487823
0.000610	0.130920	-0.479431
-0.042725	0.113678	-0.487366
-0.087891	0.113831	-0.489197
-0.086517	0.124054	-0.484619
-0.095215	0.108643	-0.479126
-0.109863	0.081024	-0.484161
-0.079498	0.111237	-0.465240
-0.062256	0.158539	-0.450439
-0.068207	0.143127	-0.467834
-0.071106	0.126495	-0.430756
-0.119019	0.081940	-0.453644
-0.149689	0.077209	-0.457306
-0.116425	0.120850	-0.437317
-0.071259	0.160370	-0.427856
-0.076904	0.137939	-0.442047
-0.063019	0.060425	-0.424957
-0.054169	0.018921	-0.430145
-0.042725	0.085144	-0.426331
-0.027618	0.134430	-0.409851
-0.049591	0.142670	-0.428009
-0.069122	0.127869	-0.427704
-0.081177	0.090332	-0.428467
-0.090027	0.070801	-0.425720
-0.133972	0.096436	-0.430756
-0.149689	0.155640	-0.405426
-0.168762	0.134277	-0.391846
-0.167389	0.103760	-0.403290
-0.160828	0.101929	-0.397339
-0.131836	0.108643	-0.401764
-0.115814	0.141449	-0.400543
-0.091095	0.148926	-0.415039
-0.021515	0.128479	-0.393829
0.037231	0.059967	-0.402985
0.071106	0.068512	-0.394287
0.024414	0.109100	-0.388947
-0.019531	0.133209	-0.393372
-0.077362	0.140381	-0.388031
-0.098572	0.110016	-0.398712
-0.137787	0.073547	-0.391846
-0.182343	0.086212	-0.403137
-0.155182	0.122833	-0.400391
-0.090637	0.148468	-0.394135
-0.053406	0.099182	-0.401764
-0.056915	0.083466	-0.378113
-0.088196	0.110321	-0.399170
-0.137024	0.110474	-0.404968
-0.122833	0.145111	-0.397186
-0.101318	0.122070	-0.389252
-0.095062	0.069733	-0.391388
-0.076904	0.050507	-0.394592
-0.025635	0.094299	-0.383148
0.009308	0.142212	-0.376587
0.016479	0.149536	-0.376587
-0.020294	0.134888	-0.374451
-0.031433	0.096588	-0.374756
-0.026550	0.085144	-0.346832
-0.037842	0.118103	-0.351257
-0.066376	0.168152	-0.344696
-0.129242	0.154266	-0.325012
-0.182648	0.107269	-0.339966
-0.183563	0.067291	-0.335083
-0.185089	0.071411	-0.341644
-0.165558	0.095062	-0.357056
-0.152283	0.123444	-0.347137
-0.094910	0.109558	-0.331879
-0.070648	0.032654	-0.350647
-0.032806	0.021820	-0.332489
-0.037994	0.068359	-0.327606
-0.070343	0.083923	-0.325623
-0.085907	0.112152	-0.319061
-0.100098	0.099640	-0.339355
-0.083771	0.066223	-0.348358
-0.094604	0.075989	-0.338135
-0.080261	0.117187	-0.352325
-0.056305	0.106964	-0.357819
0.000610	0.088959	-0.358582
-0.009003	0.036926	-0.365906
-0.045624	0.036316	-0.357361
-0.121918	0.068054	-0.372314
-0.162811	0.097961	-0.383301
-0.211639	0.113220	-0.372925
-0.222015	0.086365	-0.381165
-0.181274	0.020905	-0.369720
-0.110779	0.045776	-0.367737
-0.053253	0.075226	-0.376892
-0.047455	0.087280	-0.356598
-0.088501	0.056610	-0.362549
-0.139771	0.033875	-0.359650
-0.111389	0.039825	-0.337982
-0.022430	0.072784	-0.342865
-0.010529	0.095825	-0.343933
-0.037537	0.136261	-0.321808
-0.063782	0.106049	-0.337830
-0.052338	0.066528	-0.339355
-0.047913	0.050201	-0.328674
-0.102081	0.019226	-0.341187
-0.174713	0.070496	-0.343475
-0.173950	0.086975	-0.340118
-0.120544	0.060883	-0.342407
-0.064545	0.025024	-0.329132
-0.048981	0.083771	-0.310211
-0.075989	0.089417	-0.324860
-0.078278	0.113831	-0.296021
-0.084991	0.095978	-0.300598
-0.069122	0.059357	-0.300446
-0.048828	0.035858	-0.292206
-0.009613	0.093994	-0.268250
-0.001373	0.127258	-0.262604
-0.010834	0.106964	-0.243835
-0.062408	0.068054	-0.229492
-0.084229	0.058441	-0.226898
-0.109100	0.043182	-0.246582
-0.117645	0.028534	-0.232849
-0.122681	0.059662	-0.225372
-0.111084	0.079956	-0.213623
-0.109558	0.029297	-0.205994
-0.129700	0.034790	-0.209503
-0.122223	0.066833	-0.191956
-0.092316	0.092773	-0.185242
-0.093689	0.089569	-0.179596
-0.098572	0.085754	-0.171204
-0.083466	0.036469	-0.164948
-0.045929	0.038910	-0.162659
-0.033875	0.061188	-0.145569
-0.062866	0.112610	-0.127716
-0.070343	0.093384	-0.096436
-0.092621	0.056152	-0.101318
-0.114594	0.070953	-0.073090
-0.155640	0.065460	-0.080414
-0.159760	0.074005	-0.075073
-0.128326	0.071259	-0.077057
-0.065765	0.074921	-0.075989
-0.022430	0.028534	-0.073242
-0.031128	0.047913	-0.067444
-0.081787	0.074921	-0.056610
-0.113678	0.094452	-0.050507
-0.100861	0.121613	-0.052643
-0.079041	0.111542	-0.042877
-0.084076	0.076752	-0.043335
-0.089569	0.077820	-0.015411
-0.076141	0.134125	-0.022278
-0.075684	0.148621	-0.006104
-0.073700	0.106354	0.002289
-0.075989	0.055389	-0.004578
-0.035553	0.072479	0.004120
-0.010071	0.094147	0.004883
-0.045013	0.127411	-0.002441
-0.130310	0.106964	-0.030975
-0.145721	0.052490	-0.013275
-0.117340	0.056152	-0.005798
-0.077362	0.114899	-0.008392
-0.077515	0.171814	0.008850
-0.095367	0.183105	-0.005035
-0.074615	0.184784	-0.024567
-0.036469	0.164337	-0.035248
-0.027771	0.169678	-0.044861
-0.057068	0.190430	-0.053711
-0.060425	0.251465	-0.064697
-0.012512	0.222778	-0.061951
0.010071	0.176086	-0.069733
-0.037689	0.163269	-0.074768
-0.141144	0.158997	-0.089264
-0.211792	0.179901	-0.102081
-0.200348	0.196686	-0.087128
-0.147858	0.169830	-0.078583
-0.095062	0.121460	-0.067902
-0.058899	0.135040	-0.056305
-0.044861	0.178528	-0.065155
-0.025635	0.227356	-0.051575
-0.031891	0.232391	-0.050812
-0.058594	0.222015	-0.041656
-0.092621	0.196686	-0.072784
-0.121613	0.210571	-0.064392
-0.167694	0.231781	-0.077209
-0.182190	0.262451	-0.071716
-0.145264	0.205231	-0.057983
-0.077667	0.157166	-0.039673
-0.037079	0.161743	-0.057678
-0.026093	0.178833	-0.069885
0.005951	0.246124	-0.056305
0.037231	0.245209	-0.063934
0.013275	0.244293	-0.061340
-0.113373	0.201416	-0.057526
-0.249939	0.229034	-0.062866
-0.267029	0.263062	-0.059509
-0.238342	0.293884	-0.050201
-0.175476	0.272675	-0.052490
-0.104675	0.228119	-0.064545
-0.063477	0.234985	-0.059357
-0.048370	0.267639	-0.060425
-0.067444	0.312805	-0.068512
-0.048676	0.324860	-0.050964
-0.040436	0.297699	-0.044098
-0.027161	0.282745	-0.039978
-0.044556	0.281830	-0.061951
-0.075836	0.276337	-0.080109
-0.140228	0.310211	-0.063019
-0.146637	0.274200	-0.055237
-0.137787	0.234222	-0.065765
-0.107117	0.201263	-0.056763
-0.101624	0.269165	-0.051422
-0.112000	0.299835	-0.033722
-0.153046	0.318451	-0.046387
-0.187073	0.275726	-0.040588
-0.174103	0.243530	-0.028687
-0.108643	0.234985	-0.034637
-0.040741	0.258026	-0.027008
-0.015106	0.275269	-0.021210
-0.080566	0.238953	-0.037079
-0.112152	0.192261	-0.030823
-0.144653	0.130005	-0.030060
-0.130768	0.117493	-0.046387
-0.103607	0.160065	-0.053711
-0.098419	0.180969	-0.044861
-0.086365	0.184784	-0.044556
-0.059204	0.094452	-0.064850
-0.042572	0.119476	-0.052643
-0.074310	0.146790	-0.065155
-0.120850	0.196228	-0.057526
-0.151062	0.203705	-0.065308
-0.120392	0.185242	-0.060577
-0.098572	0.118713	-0.061188
-0.112915	0.129852	-0.056458
-0.113525	0.206604	-0.057678
-0.058289	0.235138	-0.057526
-0.004120	0.191498	-0.080719
0.011444	0.154572	-0.072327
-0.012512	0.123291	-0.079041
-0.028381	0.128326	-0.075531
-0.019531	0.124054	-0.084381
-0.002594	0.126343	-0.081177
0.014191	0.135803	-0.072021
-0.020447	0.106201	-0.076599
-0.086823	0.113983	-0.064697
-0.157318	0.099945	-0.048065
-0.195923	0.098572	-0.048523
-0.202332	0.090485	-0.065002
-0.173950	0.084991	-0.061646
-0.134430	0.074005	-0.048981
-0.120697	0.084229	-0.065918
-0.083618	0.148010	-0.070190
-0.031738	0.167084	-0.059662
0.009155	0.131683	-0.072784
0.045319	0.093231	-0.081635
0.085449	0.084229	-0.088959
0.109406	0.115814	-0.077515
-0.001831	0.124969	-0.082855
-0.177155	0.079956	-0.088654
-0.296326	0.048676	-0.077362
-0.290680	0.042877	-0.079193
-0.234070	0.056152	-0.102081
-0.124054	0.100555	-0.100861
-0.046082	0.116577	-0.112152
-0.024719	0.109863	-0.108185
0.010681	0.050659	-0.118256
0.084076	0.088959	-0.093536
0.057983	0.099945	-0.091705
-0.001678	0.124054	-0.104218
-0.028839	0.081635	-0.101166
0.000305	0.070953	-0.097351
-0.044098	0.034332	-0.133057
-0.115662	0.047913	-0.133057
-0.180664	0.032196	-0.142822
-0.115204	0.005951	-0.127258
-0.078735	-0.007477	-0.126343
-0.088501	-0.000610	-0.130920
-0.126190	0.022125	-0.135040
-0.133514	0.043640	-0.137482
-0.112152	0.044403	-0.117645
-0.113525	0.039520	-0.133972
-0.119934	0.068512	-0.117187
-0.155029	0.031128	-0.099335
-0.148163	0.039978	-0.102386
-0.115356	0.086670	-0.102539
-0.098419	0.071716	-0.100250
-0.064697	0.031281	-0.100403
-0.005798	0.003052	-0.076141
0.079041	-0.014648	-0.073853
0.161591	0.027161	-0.074463
0.146484	0.081940	-0.075531
0.005341	0.059814	-0.091248
-0.114746	0.013885	-0.074615
-0.198364	-0.053711	-0.082550
-0.213165	-0.009918	-0.089111
-0.167236	0.033875	-0.066223
-0.162964	0.036469	-0.068207
-0.179901	0.050659	-0.077972
-0.178986	0.048676	-0.072937
-0.164032	0.036316	-0.063629
-0.141449	0.033569	-0.047302
-0.097046	0.075989	-0.027466
-0.039062	0.072937	-0.015411
0.016479	0.056000	-0.020142
0.014801	0.027771	-0.026703
0.004120	0.007019	-0.034790
-0.037537	0.024414	-0.043640
-0.090942	0.042267	-0.029602
-0.071411	0.026703	-0.021515
-0.019684	0.000305	-0.009613
-0.012970	0.015259	0.026703
-0.049133	0.044098	0.046387
-0.073090	0.082245	0.057831
-0.114746	0.084839	0.040131
-0.157013	0.046844	0.055695
-0.170288	0.005493	0.053711
-0.165863	0.016632	0.066376
-0.141296	0.053864	0.075073
-0.105133	0.101471	0.099640
-0.063324	0.057068	0.125885
-0.042267	-0.001984	0.148468
-0.012970	-0.056458	0.158539
-0.027008	-0.073700	0.166779
-0.082397	-0.037842	0.188904
-0.142365	0.006104	0.201263
-0.158691	-0.036011	0.205994
-0.090790	-0.145264	0.211182
-0.017242	-0.162506	0.225983
-0.038452	-0.219574	0.247650
-0.095367	-0.223846	0.246277
-0.106659	-0.233307	0.266724
-0.091705	-0.260620	0.270844
-0.119629	-0.283508	0.272675
-0.158234	-0.272217	0.274200
-0.186920	-0.207214	0.258942
-0.148468	-0.162811	0.258636
-0.055237	-0.148315	0.265656
-0.006256	-0.144043	0.259857
-0.038757	-0.057983	0.269623
-0.105591	0.018768	0.266113
-0.073395	0.161591	0.284424
-0.027161	0.263672	0.299988
0.020599	0.349274	0.329285
0.050659	0.473022	0.322266
0.025024	0.705566	0.334930
-0.021210	0.886078	0.344849
-0.061951	1.051636	0.337067
-0.068054	1.207123	0.337067
-0.079498	1.296387	0.347443
-0.088043	1.393280	0.341492
-0.095215	1.494293	0.326691
-0.054474	1.723022	0.340881
0.006714	1.852264	0.357666
0.003967	1.908264	0.354767
-0.030975	1.994019	0.346222
-0.053558	2.096863	0.334778
-0.084686	2.259521	0.326538
-0.131683	2.459106	0.337372
-0.210114	2.593231	0.350189
-0.293732	2.624207	0.339050
-0.325470	2.647552	0.321045
-0.299377	2.646179	0.328217
-0.241852	2.658081	0.339813
-0.242462	2.621307	0.304718
-0.211334	2.399445	0.280914
-0.148773	2.118378	0.285492
-0.098419	1.888885	0.270691
-0.057831	1.628265	0.260468
-0.011444	1.408997	0.270691
0.043945	1.142731	0.288391
0.082855	0.847626	0.288239
0.076752	0.668182	0.276184
0.017700	0.420074	0.256195
-0.056610	0.275116	0.245514
-0.102234	0.137939	0.233612
-0.134735	0.005035	0.216217
-0.173035	-0.148315	0.202332
-0.160370	-0.150757	0.203094
-0.111084	-0.161591	0.207062
-0.037537	-0.168762	0.198822
0.015717	-0.207825	0.167236
0.104675	-0.260620	0.165863
0.198822	-0.251923	0.168610
0.235291	-0.221710	0.169067
0.236359	-0.206299	0.158539
0.123596	-0.194702	0.155487
-0.028076	-0.179291	0.161591
-0.228729	-0.215302	0.149384
-0.379486	-0.167389	0.134430
-0.438538	-0.129089	0.136414
-0.444489	-0.063782	0.135803
-0.470428	-0.086060	0.118713
-0.462494	-0.096588	0.124054
-0.357513	-0.089874	0.115356
-0.159912	-0.045166	0.133209
-0.049896	0.024719	0.134735
-0.142975	0.059509	0.134277
-0.271149	0.069427	0.146790
-0.117950	0.019836	0.149078
0.240631	0.031128	0.158234
0.436707	0.065308	0.160675
0.391083	0.133209	0.156708
0.306702	0.135193	0.175323
0.191345	0.081329	0.176544
-0.087585	0.072632	0.173492
-0.419617	0.084991	0.162964
-0.518188	0.093994	0.163727
-0.369415	0.104980	0.155945
-0.154724	0.094147	0.169983
-0.003052	0.048065	0.162811
0.158386	0.026855	0.148773
0.677795	0.049133	0.140381
1.589661	0.098572	0.141602
2.186127	0.112610	0.107269
2.074738	0.082703	0.102692
1.427917	0.055389	0.096588
0.636292	0.072632	0.106201
-0.404358	0.094910	0.081024
-1.991425	0.091400	0.066833
-2.628326	0.055084	0.049286
-2.613831	0.007324	0.063019
-2.092590	0.021057	0.060883
-1.038055	0.028229	0.032806
-2.125397	0.070953	0.033112
0.313263	0.070343	0.001068
2.283478	0.023651	-0.007477
2.682190	-0.002289	-0.020447
2.684174	0.024109	-0.009460
2.680511	0.028076	-0.009613
2.252808	0.010834	-0.008392
1.362000	0.023956	-0.028381
0.490570	0.029755	-0.024567
-0.338745	0.014343	-0.014954
-1.070251	0.054626	-0.000610
-1.517181	0.122375	0.012054
-1.648102	0.105591	0.014954
-1.511383	0.043030	0.007629
-1.084442	0.008392	0.035706
-0.458679	0.044708	0.032196
0.255585	0.068207	0.056305
0.876770	0.120239	0.066223
1.297455	0.087738	0.078125
1.418915	0.045776	0.110474
1.227417	0.006714	0.136871
0.876923	0.022736	0.151825
0.443420	0.071259	0.193787
0.021820	0.087585	0.225372
-0.288391	0.073090	0.224609
-0.497894	0.036926	0.234680
-0.595703	0.046539	0.263367
-0.561218	0.052338	0.266418
-0.448456	0.101166	0.287933
-0.418243	0.048218	0.282440
-0.437317	0.029602	0.274963
-0.475311	0.014648	0.252075
-0.464172	0.068665	0.256500
-0.496521	0.077057	0.227509
-0.554199	0.103760	0.241852
-0.680084	0.047150	0.232849
-0.785370	0.042114	0.227051
-0.860443	0.041656	0.209503
-0.845032	0.056305	0.206909
-0.701752	0.084229	0.213318
-0.449371	0.090637	0.218658
-0.171356	0.085907	0.238190
0.023346	0.088501	0.265503
0.130310	0.099030	0.288696
0.289307	0.113831	0.305481
0.462036	0.100555	0.328674
0.673065	0.105286	0.385132
0.793915	0.054016	0.396729
0.734406	0.067139	0.402374
0.656281	0.085144	0.447998
0.573883	0.117187	0.484314
0.470428	0.095825	0.511627
0.315857	0.056152	0.561676
0.125580	0.003662	0.605621
-0.072327	0.055237	0.669861
-0.247040	0.088196	0.720215
-0.386047	0.099640	0.786285
-0.440216	0.103760	0.853882
-0.415497	0.062103	0.929413
-0.329590	0.041656	1.007080
-0.238953	0.056458	1.101837
-0.191650	0.140381	1.209564
-0.178986	0.145569	1.309052
-0.145416	0.110474	1.411743
-0.048828	0.087738	1.538696
0.016632	0.062561	1.610107
0.065765	0.071259	1.736603
0.051727	0.110168	1.867523
0.023956	0.085907	1.971130
0.010986	0.033417	2.095032
-0.020294	0.048218	2.238617
-0.066681	0.097809	2.377625
-0.168915	0.115356	2.507172
-0.180511	0.117645	2.621613
-0.124054	0.118713	2.711487
-0.064545	0.099487	2.720795
-0.045319	0.094452	2.722931
-0.092316	0.110321	2.724152
-0.153046	0.104523	2.726440
-0.157776	0.102234	2.722168
-0.200500	0.092926	2.723236
-0.250244	0.096893	2.718964
-0.270081	0.090942	2.716217
-0.258331	0.125427	2.722321
-0.246735	0.114594	2.723694
-0.186615	0.085754	2.724915
-0.172424	0.006561	2.722931
-0.156403	0.046082	2.721252
-0.209503	0.066681	2.722168
-0.264435	0.107117	2.714691
-0.302734	0.106812	2.719574
-0.229950	0.117035	2.734680
-0.158691	0.072632	2.724609
-0.103607	0.072784	2.718506
-0.059662	0.153656	2.725525
-0.047455	0.173950	2.731781
-0.039062	0.128937	2.732697
-0.030518	0.089569	2.725830
-0.054169	0.084686	2.721710
-0.085449	0.105286	2.716675
-0.109863	0.133362	2.715759
-0.075989	0.129089	2.717438
-0.030365	0.086823	2.721710
0.043030	0.020905	2.735901
0.071259	0.055542	2.725067
0.056610	0.093689	2.722626
0.000305	0.109711	2.726135
-0.053101	0.105133	2.728119
-0.061798	0.086517	2.719879
-0.054169	0.090179	2.723541
-0.079041	0.119019	2.721558
-0.051422	0.163879	2.727051
-0.006714	0.144196	2.716064
0.039215	0.109100	2.725372
0.041504	0.097198	2.720184
-0.010223	0.102081	2.724457
-0.091705	0.106201	2.716827
-0.125427	0.160065	2.723236
-0.162964	0.125427	2.722778
-0.140076	0.079193	2.730560
-0.118408	0.075989	2.726746
-0.118866	0.103760	2.722626
-0.146179	0.152740	2.729797
-0.184174	0.154419	2.726135
-0.218658	0.153503	2.722778
-0.210114	0.129852	2.724152
-0.111389	0.141907	2.716980
-0.027161	0.165405	2.727356
0.064240	0.213776	2.731171
0.087128	0.183258	2.716522
0.071716	0.154114	2.725067
0.035858	0.155029	2.725983
-0.047607	0.152588	2.718811
-0.134888	0.179138	2.731781
-0.139465	0.179138	2.716675
-0.132751	0.131073	2.719421
-0.164490	0.072937	2.720032
-0.168304	0.122070	2.733154
-0.170135	0.154572	2.726135
-0.146027	0.160828	2.725067
-0.093689	0.143127	2.726288
-0.007019	0.152740	2.721405
-0.034637	0.140381	2.726898
-0.090790	0.155945	2.714081
-0.152283	0.178528	2.716827
-0.141907	0.172729	2.727966
-0.091095	0.181274	2.724304
-0.068054	0.164795	2.725067
-0.072937	0.163422	2.722015
-0.056458	0.182800	2.716827
-0.007629	0.198364	2.724609
0.026093	0.182190	2.715454
0.023956	0.152588	2.714996
-0.040131	0.130920	2.724915
-0.099030	0.155945	2.725220
-0.158539	0.171661	2.725830
-0.197296	0.215607	2.731171
-0.253448	0.205078	2.718353
-0.192566	0.166321	2.710114
-0.064240	0.175781	2.729950
0.002594	0.150604	2.718658
0.039825	0.175323	2.716827
0.067291	0.173187	2.718506
0.091858	0.168304	2.721100
0.110474	0.158691	2.730255
0.078430	0.142670	2.724609
0.021973	0.179596	2.719269
-0.072479	0.216980	2.726898
-0.138550	0.179138	2.716522
-0.165710	0.130157	2.724762
-0.186615	0.121765	2.722931
-0.186615	0.149689	2.716827
-0.198822	0.184174	2.733154
-0.177002	0.181732	2.720184
-0.121002	0.157623	2.714691
-0.089264	0.143433	2.714233
-0.097656	0.130157	2.723694
-0.090485	0.173187	2.716522
-0.018463	0.203857	2.719879
0.020599	0.178833	2.718811
0.011444	0.160065	2.721863
-0.032501	0.153046	2.709656
-0.050049	0.161591	2.729797
-0.014801	0.200958	2.725525
-0.018921	0.195770	2.722321
-0.070953	0.185852	2.725067
-0.109100	0.150757	2.725525
-0.106964	0.161743	2.715454
-0.079498	0.191650	2.719879
-0.062561	0.214691	2.725525
-0.138092	0.198822	2.717285
-0.167847	0.172272	2.723541
-0.139160	0.174255	2.736206
-0.102844	0.177460	2.719574
-0.096741	0.217438	2.719727
-0.119019	0.206604	2.723846
-0.126495	0.168610	2.721558
-0.130157	0.132141	2.713470
-0.040131	0.152435	2.723694
0.034637	0.161438	2.732239
0.046234	0.182037	2.724762
0.024567	0.167999	2.722321
0.018005	0.156555	2.726135
-0.000458	0.123291	2.720337
-0.056763	0.131836	2.720032
-0.134430	0.166626	2.723694
-0.220032	0.164490	2.734070
-0.298309	0.158386	2.724762
-0.290985	0.132751	2.733154
-0.208130	0.123444	2.721558
-0.132751	0.160828	2.725220
-0.037689	0.185699	2.722321
0.042572	0.143890	2.722931
0.115662	0.157013	2.729034
0.093994	0.133514	2.719727
0.066986	0.141449	2.693481
0.057220	0.195923	2.657166
0.004272	0.167084	2.633972
-0.047150	0.141449	2.587585
-0.082397	0.082550	2.551575
-0.107727	0.106049	2.538910
-0.119324	0.092468	2.514801
-0.166779	0.117493	2.499084
-0.234985	0.133514	2.463379
-0.264740	0.149536	2.450104
-0.239716	0.142517	2.431641
-0.173492	0.140839	2.401733
-0.124512	0.190430	2.385864
-0.067291	0.224762	2.378693
0.004883	0.168915	2.349701
0.033112	0.106506	2.323608
0.052032	0.098724	2.301483
0.059509	0.115509	2.281036
0.038147	0.148773	2.254639
-0.069427	0.143585	2.199402
-0.157623	0.133209	2.208405
-0.220490	0.082092	2.191772
-0.272522	0.092468	2.158356
-0.306244	0.151978	2.159882
-0.253448	0.185089	2.122955
-0.149994	0.152283	2.084961
-0.067444	0.093231	2.060852
-0.006561	0.077972	2.058105
-0.006561	0.106659	2.019196
-0.020447	0.182495	2.016296
-0.038910	0.173340	1.991119
-0.025177	0.127563	1.990814
-0.072632	0.083771	1.950378
-0.104675	0.082855	1.926575
-0.121460	0.099487	1.921082
-0.081482	0.138550	1.887054
-0.048523	0.124054	1.874390
-0.065765	0.071106	1.842041
-0.063171	0.069885	1.820221
-0.025940	0.100708	1.810455
-0.026245	0.108032	1.770630
-0.068665	0.119324	1.751556
-0.127106	0.122528	1.733093
-0.164490	0.072937	1.723022
-0.165253	0.072784	1.683197
-0.146484	0.111389	1.680603
-0.136719	0.152435	1.672211
-0.071716	0.127563	1.655884
-0.021057	0.113068	1.621094
-0.009918	0.095367	1.583405
-0.001831	0.100708	1.592102
-0.052948	0.095978	1.560974
-0.110474	0.111084	1.569519
-0.136871	0.128021	1.578064
-0.102844	0.042725	1.531372
-0.027618	0.045471	1.521301
-0.024872	0.090027	1.513977
-0.078735	0.124664	1.484222
-0.134735	0.108795	1.457367
-0.158997	0.092773	1.429443
-0.157471	0.092163	1.419525
-0.172119	0.093536	1.394348
-0.185242	0.146332	1.390839
-0.168152	0.151825	1.363373
-0.108795	0.123749	1.368561
-0.038452	0.082703	1.343384
-0.034943	0.059357	1.329041
-0.004730	0.072784	1.309204
-0.016479	0.101624	1.308289
-0.059814	0.085754	1.286316
-0.120697	0.050354	1.242981
-0.126190	0.012054	1.243591
-0.089417	0.068665	1.228790
-0.060425	0.087280	1.223907
-0.035706	0.112457	1.235352
0.000763	0.110474	1.210785
-0.000763	0.090179	1.157990
-0.042419	0.065460	1.146088
-0.077667	0.075226	1.121063
-0.105743	0.126801	1.115112
-0.113525	0.133972	1.095428
-0.118561	0.101471	1.073303
-0.132599	0.063934	1.049042
-0.159912	0.060883	1.047363
-0.199432	0.070038	1.026154
-0.140991	0.117035	1.019440
-0.060272	0.099792	0.979156
0.027008	0.046539	0.967407
0.076294	0.028229	0.958099
0.041351	0.068512	0.946503
-0.056458	0.072174	0.928955
-0.134125	0.065613	0.902863
-0.184479	0.054779	0.863800
-0.185089	0.036926	0.873260
-0.171356	0.045776	0.862579
-0.111237	0.058136	0.827179
-0.062408	0.098267	0.806122
-0.036316	0.080566	0.784454
-0.018311	0.062561	0.767975
0.006409	0.089417	0.746765
-0.003967	0.093842	0.726166
-0.015411	0.100403	0.693817
-0.044556	0.087585	0.664062
-0.072327	0.060577	0.641937
-0.075378	0.022125	0.622253
-0.068054	0.035248	0.582733
-0.075989	0.069122	0.592804
-0.131683	0.089569	0.528107
-0.197754	0.113678	0.483551
-0.273285	0.070801	0.447693
-0.325317	0.026703	0.412750
-0.304718	0.043488	0.371552
-0.268402	0.114441	0.343323
-0.260773	0.124054	0.325623
-0.164185	0.082703	0.304108
0.106049	0.041199	0.261230
0.254059	0.081177	0.219879
0.008545	0.072479	0.175018
-0.431671	0.078888	0.131531
-0.787811	0.078583	0.087585
-0.918274	0.059357	0.048370
-0.433197	-0.008087	-0.017090
0.592194	0.043335	-0.068512
1.241608	0.095673	-0.111847
1.197662	0.111084	-0.163269
0.739594	0.118408	-0.208435
-0.012360	0.064697	-0.248413
-0.730743	0.063324	-0.296783
-1.071167	0.085754	-0.359650
-1.150055	0.127716	-0.418549
-1.039734	0.126495	-0.469666
-0.634003	0.075378	-0.526428
-0.007019	0.058594	-0.599213
0.583496	0.048065	-0.656433
0.900269	0.109711	-0.690155
0.897522	0.121155	-0.723419
0.739594	0.115051	-0.775909
0.496521	0.050812	-0.832672
0.171356	0.008850	-0.885773
-0.200653	0.042877	-0.937653
-0.529480	0.102844	-0.995789
-0.680695	0.104980	-1.055450
-0.593567	0.097504	-1.112671
-0.241394	0.070496	-1.145477
0.100708	0.098114	-1.178131
0.264740	0.124664	-1.213226
0.282745	0.158844	-1.199341
0.202942	0.123901	-1.180420
0.027008	0.073242	-1.165619
-0.221100	0.067902	-1.153717
-0.526886	0.072632	-1.103363
-0.700378	0.083008	-1.051331
-0.676422	0.107727	-0.972443
-0.520782	0.096893	-0.917816
-0.272675	0.045624	-0.848236
-0.008392	0.042114	-0.785675
0.212402	0.079498	-0.751495
0.310059	0.101929	-0.684052
0.214386	0.097504	-0.659790
-0.019836	0.090637	-0.645447
-0.262451	0.065155	-0.617523
-0.507812	0.092621	-0.625610
-0.686340	0.139008	-0.644226
-0.583038	0.145264	-0.652161
-0.198517	0.107574	-0.647888
0.195770	0.064850	-0.656433
0.466309	0.056000	-0.667419
0.586548	0.066681	-0.638123
0.666504	0.098114	-0.646210
0.715942	0.111389	-0.628052
0.669861	0.091705	-0.580597
0.406952	0.068207	-0.567169
-0.005188	0.111542	-0.521088
-0.478058	0.115051	-0.498962
-0.863342	0.092163	-0.460815
-1.055298	0.079956	-0.422821
-1.006317	0.046692	-0.367584
-0.798187	0.046997	-0.336609
-0.492859	0.077972	-0.296326
-0.204468	0.116425	-0.251923
0.037079	0.119171	-0.204315
0.142212	0.099487	-0.175629
0.137787	0.065613	-0.165558
0.082092	0.075684	-0.137482
-0.050964	0.105743	-0.101013
-0.205688	0.139313	-0.082855
-0.346527	0.100250	-0.070801
-0.357056	0.041199	-0.033264
-0.294342	0.046997	-0.026398
-0.160370	0.047607	-0.006104
0.013733	0.094757	0.017548
0.141907	0.127258	0.039062
0.180664	0.114288	0.029907
0.177002	0.067291	0.043488
0.150146	0.070801	0.068207
0.144501	0.126343	0.096588
0.138397	0.157166	0.135956
0.088196	0.120392	0.175476
0.016937	0.096130	0.180969
-0.051270	0.091858	0.185394
-0.062561	0.113983	0.198517
-0.046234	0.142975	0.201569
-0.009918	0.139160	0.209961
0.022583	0.125427	0.227966
0.022583	0.076599	0.229340
-0.016632	0.086212	0.224915
-0.070190	0.100403	0.231018
-0.154877	0.140533	0.243378
-0.239105	0.144806	0.224152
-0.291443	0.115051	0.224152
-0.280304	0.099182	0.232391
-0.254517	0.067444	0.236206
-0.212402	0.144348	0.255127
-0.205383	0.180817	0.256348
-0.198975	0.107880	0.252380
-0.183258	0.093689	0.259857
-0.170746	0.127563	0.268707
-0.183411	0.125732	0.272064
-0.120697	0.145111	0.266266
-0.003662	0.146179	0.267029
0.063629	0.114441	0.258484
0.046692	0.119629	0.258179
0.021057	0.148468	0.243835
-0.011749	0.160980	0.244141
-0.063629	0.180511	0.228729
-0.111542	0.150604	0.223999
-0.134583	0.108185	0.211182
-0.103912	0.104370	0.216980
-0.034332	0.147247	0.232391
-0.010376	0.209198	0.223999
0.007019	0.178833	0.223083
-0.020447	0.118256	0.195312
-0.055695	0.129395	0.199280
-0.081787	0.126495	0.178223
-0.090942	0.144806	0.184784
-0.097961	0.159607	0.160980
-0.082855	0.155945	0.161285
-0.013885	0.115967	0.153046
0.041351	0.124359	0.133820
0.068512	0.153656	0.142975
0.024719	0.171356	0.125580
-0.044708	0.184784	0.119324
-0.087280	0.146332	0.122528
-0.099640	0.150452	0.107422
-0.071106	0.185242	0.112152
-0.072784	0.197296	0.110779
-0.047913	0.167694	0.121613
-0.036926	0.108032	0.115814
-0.096283	0.079956	0.108185
-0.144806	0.124512	0.108795
-0.174866	0.150909	0.109100
-0.189819	0.177002	0.085449
-0.157623	0.159760	0.076141
-0.084534	0.110626	0.070190
-0.050964	0.086670	0.067902
-0.065918	0.121460	0.078888
-0.072784	0.142365	0.077820
-0.074310	0.151215	0.070648
-0.045624	0.146332	0.074615
-0.002594	0.106812	0.052643
0.016479	0.080261	0.033264
-0.013733	0.116882	0.033722
-0.050659	0.173492	0.018768
-0.088654	0.143280	-0.010681
-0.110626	0.107574	-0.019836
-0.124359	0.092621	-0.044098
-0.139008	0.083771	-0.053711
-0.131836	0.104675	-0.070190
-0.123138	0.123444	-0.085144
-0.111237	0.101471	-0.078735
-0.095978	0.071411	-0.074768
-0.078888	0.086517	-0.079498
-0.091400	0.112457	-0.094299
-0.095825	0.154724	-0.111237
-0.101929	0.177307	-0.113220
-0.100708	0.146942	-0.123444
-0.090485	0.095978	-0.159149
-0.060272	0.124054	-0.137787
-0.099792	0.144196	-0.161896
-0.091095	0.192719	-0.156555
-0.066528	0.166473	-0.186310
-0.008698	0.119934	-0.175934
-0.000153	0.126801	-0.164490
-0.075836	0.109253	-0.198364
-0.149841	0.131683	-0.224304
-0.143127	0.163116	-0.213165
-0.097046	0.144958	-0.224762
-0.071106	0.080719	-0.232697
-0.086670	0.091095	-0.246582
-0.108643	0.136719	-0.234528
-0.118866	0.172882	-0.250397
-0.137024	0.163269	-0.285187
-0.121002	0.135345	-0.288086
-0.120392	0.118408	-0.293732
-0.095062	0.098877	-0.294189
-0.074310	0.162506	-0.330658
-0.046082	0.199890	-0.345612
0.040588	0.127411	-0.349579
0.093536	0.066986	-0.372314
0.070648	0.083618	-0.401611
-0.012817	0.124207	-0.445404
-0.077972	0.191040	-0.445557
-0.152893	0.168152	-0.474396
-0.150146	0.141296	-0.490417
-0.113220	0.089569	-0.510712
-0.126343	0.095062	-0.532990
-0.191040	0.114136	-0.553284
-0.229187	0.155487	-0.576172
-0.232697	0.149841	-0.589142
-0.152130	0.100708	-0.586853
-0.063019	0.141296	-0.607758
-0.016174	0.147552	-0.614777
0.037842	0.195312	-0.632324
0.051727	0.166779	-0.634766
0.028076	0.147400	-0.633545
-0.046692	0.085602	-0.677185
-0.131836	0.094757	-0.682983
-0.202026	0.116882	-0.681305
-0.209045	0.146790	-0.715485
-0.158081	0.133514	-0.720062
-0.092010	0.086975	-0.720825
-0.079956	0.079193	-0.751953
-0.106659	0.137634	-0.783844
-0.110474	0.159607	-0.779572
-0.104370	0.142365	-0.804901
-0.100098	0.133209	-0.814209
-0.063477	0.116577	-0.817566
-0.050201	0.100708	-0.820770
-0.047302	0.109863	-0.844574
-0.002441	0.148773	-0.864563
0.011444	0.132446	-0.882874
-0.037384	0.108032	-0.879211
-0.086517	0.100555	-0.890198
-0.121460	0.139313	-0.889893
-0.154724	0.189362	-0.914764
-0.143127	0.165558	-0.909729
-0.113525	0.108337	-0.914917
-0.051880	0.092621	-0.921783
0.002441	0.093842	-0.926361
-0.026550	0.115814	-0.924530
-0.125885	0.181274	-0.925140
-0.251007	0.191803	-0.928345
-0.263519	0.150909	-0.962524
-0.238800	0.111847	-0.987091
-0.157013	0.140076	-0.974121
-0.111084	0.159760	-1.002197
-0.066528	0.185547	-1.001434
-0.012360	0.148621	-1.005096
0.021973	0.103912	-1.020813
-0.007172	0.100708	-1.042328
-0.029144	0.122833	-1.024933
-0.050659	0.148773	-1.026459
-0.082092	0.132599	-1.026611
-0.097961	0.120544	-1.015320
-0.167084	0.075989	-1.035919
-0.191498	0.118103	-1.037445
-0.185089	0.136108	-1.044922
-0.165100	0.140991	-1.056824
-0.130310	0.151672	-1.048431
-0.106659	0.112152	-1.062469
-0.079498	0.104218	-1.061859
-0.060120	0.124359	-1.060791
-0.065308	0.162506	-1.059570
-0.060120	0.154419	-1.061859
-0.041199	0.139008	-1.065216
-0.008850	0.119171	-1.068268
0.002747	0.129242	-1.076202
-0.015869	0.133667	-1.079712
-0.070190	0.151978	-1.092529
-0.078735	0.138702	-1.098938
-0.048676	0.100861	-1.083984
-0.037079	0.104828	-1.099701
-0.065613	0.129089	-1.117249
-0.134125	0.128479	-1.123505
-0.148163	0.108032	-1.132812
-0.132294	0.108643	-1.146088
-0.071564	0.141296	-1.129913
-0.046844	0.174408	-1.143799
-0.068359	0.182800	-1.173553
-0.073547	0.200043	-1.190491
-0.097504	0.186615	-1.177368
-0.129547	0.146332	-1.198425
-0.135651	0.117950	-1.209717
-0.121918	0.112152	-1.202393
-0.068665	0.152435	-1.211090
-0.029144	0.155487	-1.221161
-0.019379	0.133057	-1.221008
-0.044708	0.102844	-1.199341
-0.086823	0.115356	-1.210785
-0.138092	0.129242	-1.228943
-0.160370	0.164490	-1.219940
-0.145264	0.181732	-1.220703
-0.136261	0.149384	-1.218414
-0.125427	0.099487	-1.226044
-0.066071	0.144196	-1.209106
-0.056610	0.171051	-1.229401
-0.075531	0.174408	-1.225586
-0.098572	0.163116	-1.200104
-0.092163	0.149384	-1.201782
-0.122681	0.144501	-1.240234
-0.160828	0.127258	-1.252899
-0.160217	0.187836	-1.242523
-0.128174	0.174103	-1.246796
-0.101166	0.112762	-1.265564
-0.033569	0.101624	-1.259460
-0.032043	0.117950	-1.284027
-0.056915	0.166168	-1.283264
-0.063324	0.187836	-1.272430
-0.067139	0.172577	-1.303253
-0.074463	0.120392	-1.284332
-0.107117	0.108337	-1.293945
-0.148773	0.141449	-1.288910
-0.156097	0.162201	-1.280975
-0.099182	0.140076	-1.283264
-0.068817	0.135193	-1.310425
-0.048676	0.109711	-1.295319
-0.034027	0.149384	-1.300812
-0.029907	0.188141	-1.292877
-0.018311	0.214844	-1.286469
-0.051117	0.143738	-1.299438
-0.080261	0.043488	-1.293335
-0.061035	0.080566	-1.286316
-0.046692	0.137177	-1.298523
-0.033417	0.170135	-1.272583
-0.032196	0.195770	-1.276093
-0.052795	0.173798	-1.291656
-0.071716	0.117340	-1.292572
-0.084534	0.111847	-1.312561
-0.070496	0.178833	-1.297150
-0.088806	0.200195	-1.311188
-0.142670	0.166321	-1.327820
-0.160370	0.149689	-1.320343
-0.154572	0.134430	-1.338654
-0.140839	0.111694	-1.347198
-0.114288	0.150604	-1.340637
-0.089417	0.149689	-1.344604
-0.035248	0.141449	-1.341705
-0.010986	0.062561	-1.385956
0.008240	0.132599	-1.353455
-0.052490	0.143738	-1.365204
-0.128479	0.176086	-1.351776
-0.142059	0.178375	-1.369476
-0.098419	0.129242	-1.379089
-0.051422	0.110016	-1.369934
-0.071869	0.114288	-1.370392
-0.065002	0.177155	-1.365967
-0.092316	0.160980	-1.374969
-0.082397	0.163422	-1.361084
-0.129852	0.118866	-1.383514
-0.145721	0.109863	-1.364899
-0.133362	0.129089	-1.374512
-0.092163	0.172119	-1.370544
-0.031281	0.159302	-1.379547
-0.018768	0.113373	-1.359406
-0.005188	0.088348	-1.359100
-0.025482	0.104523	-1.367340
-0.045929	0.151825	-1.359253
-0.075531	0.148621	-1.356049
-0.096436	0.120087	-1.334686
-0.076599	0.070190	-1.329498
-0.085297	0.103149	-1.330566
-0.109711	0.155182	-1.330414
-0.179291	0.175629	-1.329956
-0.215912	0.142822	-1.300049
-0.200500	0.117493	-1.285553
-0.197754	0.093994	-1.291351
-0.134125	0.115814	-1.272583
-0.119781	0.122375	-1.281891
-0.104370	0.142212	-1.269073
-0.055542	0.139160	-1.256256
-0.022125	0.084991	-1.254730
0.022583	0.077057	-1.223907
0.019989	0.127411	-1.213226
-0.035553	0.136414	-1.217346
-0.059967	0.125732	-1.217041
-0.053711	0.099945	-1.173553
-0.084381	0.080566	-1.193848
-0.135803	0.083466	-1.201935
-0.173950	0.116882	-1.210327
-0.140991	0.161743	-1.181335
-0.122375	0.122223	-1.206818
-0.107422	0.107727	-1.189880
-0.133057	0.108032	-1.188049
-0.165405	0.118256	-1.167908
-0.181274	0.139160	-1.181488
-0.169678	0.117645	-1.177521
-0.118256	0.089111	-1.174164
-0.073853	0.070648	-1.154480
-0.045471	0.107117	-1.168365
0.008087	0.134125	-1.154480
0.026703	0.153351	-1.167603
-0.003357	0.148621	-1.154938
-0.050659	0.100555	-1.139374
-0.098267	0.083160	-1.131287
-0.132141	0.097656	-1.135254
-0.146027	0.145569	-1.119690
-0.187378	0.152588	-1.110077
-0.222015	0.131683	-1.082306
-0.218201	0.104065	-1.083221
-0.200500	0.085144	-1.075439
-0.200653	0.090485	-1.075592
-0.176239	0.136108	-1.057281
-0.144806	0.117645	-1.030731
-0.067444	0.084839	-1.033173
0.015106	0.071716	-1.026154
0.019989	0.102234	-1.003876
0.002136	0.126038	-0.994110
-0.004425	0.136414	-0.985107
-0.002747	0.109711	-0.978851
0.007019	0.059814	-0.948639
-0.051117	0.026398	-0.940247
-0.102234	0.065308	-0.935364
-0.070953	0.155182	-0.924683
-0.048676	0.138092	-0.912781
-0.080872	0.102692	-0.913849
-0.137634	0.094299	-0.899200
-0.149689	0.092010	-0.889587
-0.133514	0.120850	-0.875092
-0.089722	0.151215	-0.874786
-0.089569	0.153198	-0.874786
-0.065765	0.124969	-0.863647
-0.051880	0.133820	-0.854340
-0.065918	0.133972	-0.842438
-0.068512	0.150909	-0.837097
-0.083923	0.151520	-0.842133
-0.076141	0.164948	-0.818787
-0.066681	0.133972	-0.812836
-0.027008	0.133209	-0.797882
0.024261	0.179291	-0.780182
0.009918	0.197754	-0.802155
-0.023041	0.175018	-0.782013
-0.081024	0.143890	-0.764923
-0.122223	0.139923	-0.759125
-0.111389	0.150299	-0.758972
-0.113983	0.139008	-0.769958
-0.093994	0.137634	-0.751190
-0.086365	0.108185	-0.744476
-0.061646	0.106964	-0.742950
-0.066071	0.145569	-0.746613
-0.088959	0.147705	-0.721893
-0.106964	0.156860	-0.739746
-0.097809	0.168152	-0.741730
-0.068512	0.132141	-0.727997
-0.030823	0.102539	-0.738068
-0.027008	0.133514	-0.750580
-0.053558	0.168457	-0.741272
-0.043488	0.154877	-0.725250
-0.033112	0.142212	-0.735321
-0.085754	0.132599	-0.744934
-0.143585	0.130920	-0.740967
-0.160522	0.139008	-0.728912
-0.138855	0.144501	-0.738373
-0.106201	0.140228	-0.734406
-0.084076	0.090027	-0.742035
-0.038300	0.094452	-0.722809
-0.054779	0.125580	-0.726318
-0.058289	0.151367	-0.716705
-0.108490	0.135345	-0.737152
-0.135651	0.099487	-0.748444
-0.099335	0.112000	-0.697021
-0.060425	0.131073	-0.708313
-0.028229	0.162811	-0.742950
-0.012665	0.190735	-0.714264
-0.041656	0.125275	-0.706329
-0.080261	0.114746	-0.698242
-0.115967	0.120697	-0.723267
-0.151062	0.131531	-0.714722
-0.158386	0.146790	-0.694733
-0.128937	0.130920	-0.707092
-0.062408	0.123444	-0.690155
-0.013123	0.070038	-0.695648
-0.006866	0.083466	-0.682831
-0.028839	0.120697	-0.667419
-0.048065	0.126648	-0.686493
-0.052643	0.151825	-0.667877
-0.036621	0.121307	-0.648346
-0.044098	0.108185	-0.659943
-0.067291	0.157166	-0.653381
-0.077667	0.213013	-0.628357
-0.088806	0.192566	-0.637817
-0.089569	0.165405	-0.620270
-0.093079	0.128174	-0.608063
-0.111237	0.121307	-0.631256
-0.113831	0.156403	-0.609131
-0.094757	0.191345	-0.603638
-0.086365	0.154419	-0.615997
-0.091095	0.132904	-0.604401
-0.127411	0.060577	-0.609741
-0.141907	0.084534	-0.610809
-0.136414	0.093842	-0.599213
-0.132141	0.157013	-0.600586
-0.117340	0.146027	-0.613708
-0.088348	0.113831	-0.583801
-0.047455	0.117035	-0.608063
-0.023346	0.131073	-0.594330
-0.054779	0.172424	-0.594635
-0.068054	0.162811	-0.599823
-0.079193	0.137024	-0.584259
-0.102692	0.115509	-0.600128
-0.096436	0.110168	-0.596771
-0.088348	0.148621	-0.576324
-0.094604	0.164032	-0.583801
-0.109406	0.150604	-0.579987
-0.129852	0.112915	-0.586395
-0.133057	0.110321	-0.585022
-0.117187	0.126190	-0.585480
-0.063934	0.136566	-0.576019
-0.033264	0.135193	-0.581970
-0.036163	0.089569	-0.579224
-0.057526	0.037994	-0.582733
-0.083466	0.064850	-0.579529
-0.084534	0.100555	-0.557861
-0.046844	0.142670	-0.589905
-0.016785	0.154877	-0.555267
-0.060577	0.138702	-0.576477
-0.109100	0.176544	-0.576630
-0.160828	0.161133	-0.581665
-0.178986	0.166931	-0.598297
-0.147705	0.183716	-0.586548
-0.132904	0.141296	-0.608521
-0.119629	0.093842	-0.618286
-0.081482	0.128326	-0.618286
-0.079956	0.151672	-0.637512
-0.091400	0.211029	-0.619507
-0.140839	0.191498	-0.617981
-0.105743	0.163727	-0.610962
-0.069885	0.136719	-0.625305
-0.060577	0.153656	-0.622559
-0.076599	0.197449	-0.632477
-0.073242	0.202026	-0.602112
-0.074921	0.162506	-0.616302
-0.058289	0.138550	-0.625763
-0.050507	0.155792	-0.608215
-0.085449	0.153046	-0.624847
-0.094757	0.197906	-0.622864
-0.077209	0.181580	-0.608978
-0.037842	0.129242	-0.618286
-0.034637	0.110931	-0.615692
-0.060577	0.142212	-0.610809
-0.104065	0.192871	-0.616455
-0.121460	0.201111	-0.618439
-0.111694	0.192108	-0.601654
-0.069733	0.160828	-0.609283
-0.052185	0.144806	-0.613556
-0.045776	0.162201	-0.597992
-0.021057	0.231018	-0.615997
-0.004730	0.207214	-0.600433
-0.028076	0.154572	-0.610962
-0.068665	0.145721	-0.628815
-0.093231	0.147858	-0.629730
-0.115814	0.151062	-0.646667
-0.104065	0.183258	-0.636139
-0.122681	0.159454	-0.635071
-0.142822	0.091248	-0.663147
-0.131531	0.121460	-0.644684
-0.129089	0.142059	-0.639038
-0.122375	0.177765	-0.646973
-0.113525	0.186920	-0.646973
-0.106812	0.140533	-0.619659
-0.109558	0.097504	-0.623169
-0.044098	0.145264	-0.617065
0.023956	0.195312	-0.593109
0.021515	0.212860	-0.593567
-0.003662	0.164795	-0.576935
-0.053253	0.134277	-0.571747
-0.117645	0.150909	-0.585632
-0.151367	0.157928	-0.573578
-0.180817	0.221100	-0.577698
-0.163116	0.209045	-0.561066
-0.106201	0.157166	-0.557556
-0.097198	0.108795	-0.578766
-0.093536	0.133667	-0.563354
-0.119171	0.174408	-0.559998
-0.111694	0.199738	-0.547333
-0.094299	0.182953	-0.553131
-0.069885	0.167542	-0.537720
-0.082397	0.148010	-0.519867
-0.061188	0.170898	-0.530701
-0.011902	0.199585	-0.517578
0.012207	0.201263	-0.524902
0.003052	0.196381	-0.500641
-0.049286	0.153046	-0.498962
-0.066528	0.154419	-0.497131
-0.060883	0.139923	-0.498505
-0.077515	0.172882	-0.504913
-0.156250	0.173187	-0.503387
-0.220795	0.151672	-0.503235
-0.223694	0.148926	-0.482941
-0.180664	0.167694	-0.489044
-0.130920	0.209503	-0.476227
-0.115356	0.198669	-0.473785
-0.108185	0.215759	-0.480804
-0.080109	0.171204	-0.475922
-0.042725	0.169830	-0.470123
-0.033722	0.183716	-0.460968
-0.027313	0.207672	-0.472870
-0.031128	0.160980	-0.443726
-0.038910	0.152130	-0.465546
-0.072021	0.131836	-0.468140
-0.092010	0.151978	-0.473328
-0.112152	0.193481	-0.460815
-0.092468	0.204620	-0.459137
-0.053406	0.160065	-0.464630
-0.026550	0.131836	-0.470123
-0.037079	0.160522	-0.459747
-0.115814	0.173950	-0.467377
-0.172882	0.191956	-0.474396
-0.197601	0.168152	-0.478058
-0.189514	0.149536	-0.470886
-0.180969	0.122223	-0.479584
-0.142365	0.177307	-0.480499
-0.096130	0.244446	-0.455780
-0.044708	0.271759	-0.466461
-0.015564	0.215607	-0.460968
-0.008087	0.158081	-0.478516
0.005035	0.162506	-0.461884
0.015106	0.151672	-0.479431
0.014496	0.196228	-0.488281
-0.035858	0.191040	-0.484924
-0.092163	0.165100	-0.487671
-0.135498	0.110168	-0.484772
-0.154877	0.151520	-0.494690
-0.198975	0.192871	-0.476990
-0.242767	0.213165	-0.488586
-0.221558	0.181122	-0.478668
-0.176239	0.145874	-0.491180
-0.111237	0.174561	-0.464935
-0.057068	0.199280	-0.478363
-0.043488	0.250397	-0.475769
-0.001526	0.216217	-0.479279
0.029144	0.201111	-0.473633
0.034943	0.173950	-0.462494
-0.014496	0.194702	-0.469666
-0.030823	0.186157	-0.474701
-0.039368	0.214386	-0.473480
-0.036621	0.204773	-0.457458
-0.075684	0.164490	-0.469360
-0.132904	0.145721	-0.462799
-0.165253	0.160370	-0.481720
-0.128784	0.212097	-0.478363
-0.119934	0.196533	-0.477295
-0.122375	0.194702	-0.495300
-0.110168	0.150604	-0.479126
-0.087433	0.161896	-0.495758
-0.066376	0.198059	-0.497284
-0.063171	0.201721	-0.501862
-0.082550	0.180054	-0.485687
-0.109711	0.149231	-0.498962
-0.086975	0.161438	-0.507355
-0.033569	0.167389	-0.513458
-0.001221	0.198059	-0.526123
-0.002289	0.187683	-0.503998
-0.042267	0.165405	-0.515442
-0.084229	0.115509	-0.524292
-0.104980	0.146790	-0.530548
-0.121765	0.208893	-0.498962
-0.160980	0.211945	-0.533600
-0.172729	0.234070	-0.529633
-0.165253	0.204315	-0.531921
-0.119171	0.178986	-0.539551
-0.065308	0.174103	-0.545959
-0.044556	0.220947	-0.549164
-0.057678	0.220642	-0.537720
-0.057831	0.163574	-0.556488
-0.049133	0.132599	-0.565643
-0.067291	0.142975	-0.562286
-0.076752	0.157623	-0.559692
-0.088959	0.220947	-0.542908
-0.107574	0.182343	-0.561676
-0.093384	0.128479	-0.578461
-0.071869	0.137939	-0.569153
-0.076141	0.187836	-0.574951
-0.079956	0.216827	-0.557861
-0.074158	0.226898	-0.547638
-0.084076	0.202484	-0.559540
-0.140381	0.167389	-0.574493
-0.180817	0.159912	-0.558014
-0.151520	0.190582	-0.560608
-0.131378	0.235901	-0.565338
-0.116425	0.229034	-0.555115
-0.135803	0.180817	-0.582123
-0.120850	0.136719	-0.583344
-0.096130	0.148468	-0.599060
-0.085144	0.169830	-0.613098
-0.072784	0.195465	-0.601959
-0.079041	0.170135	-0.606232
-0.040131	0.124207	-0.606232
-0.027618	0.094299	-0.598907
-0.037994	0.152435	-0.604553
-0.093079	0.210571	-0.593567
-0.117645	0.249023	-0.582733
-0.140381	0.227356	-0.601654
-0.133209	0.194550	-0.573273
-0.172272	0.184326	-0.582275
-0.189362	0.203705	-0.580292
-0.175934	0.240479	-0.574646
-0.144806	0.181732	-0.590363
-0.078583	0.170898	-0.579987
-0.057068	0.148468	-0.588074
-0.079956	0.162201	-0.610809
-0.093689	0.196686	-0.600433
-0.092468	0.214081	-0.601196
-0.070648	0.207520	-0.601959
-0.064392	0.150909	-0.608521
-0.076599	0.181122	-0.617218
-0.096130	0.200653	-0.616302
-0.112915	0.196686	-0.615692
-0.134888	0.176239	-0.633392
-0.126953	0.205841	-0.622559
-0.133209	0.163422	-0.612488
-0.132599	0.118561	-0.625610
-0.096436	0.171204	-0.620575
-0.074005	0.211945	-0.612183
-0.103760	0.233612	-0.649261
-0.094604	0.231628	-0.640869
-0.100250	0.224457	-0.636902
-0.110474	0.215912	-0.638123
-0.121155	0.219269	-0.650177
-0.122681	0.219727	-0.643768
-0.125122	0.185699	-0.636749
-0.098572	0.178070	-0.644379
-0.085602	0.227814	-0.653687
-0.089569	0.220032	-0.655212
-0.069885	0.228882	-0.637665
-0.095825	0.240021	-0.662994
-0.076447	0.212250	-0.643311
-0.032349	0.210114	-0.636292
-0.023346	0.219116	-0.635681
-0.050354	0.276337	-0.646210
-0.067444	0.254059	-0.630341
-0.071869	0.229187	-0.633545
-0.069427	0.220490	-0.643311
-0.032806	0.216980	-0.633850
-0.001526	0.211945	-0.623169
0.004120	0.218201	-0.649719
0.001984	0.229950	-0.651093
-0.012360	0.184784	-0.627289
-0.029144	0.210419	-0.645752
-0.033722	0.231781	-0.638123
-0.038300	0.237274	-0.635071
-0.036163	0.252380	-0.638885
-0.092468	0.251923	-0.651398
-0.108948	0.222321	-0.630798
-0.090485	0.216217	-0.634003
-0.053406	0.288696	-0.648956
-0.049896	0.304718	-0.657501
-0.076752	0.248566	-0.645447
-0.121002	0.189819	-0.634155
-0.130615	0.191803	-0.639496
-0.085144	0.199585	-0.616760
-0.061340	0.239716	-0.610352
-0.055389	0.255280	-0.614319
-0.059509	0.233917	-0.620422
-0.071564	0.158844	-0.629120
-0.075226	0.184174	-0.622253
-0.057831	0.213165	-0.622406
-0.055237	0.214996	-0.607452
-0.068665	0.245972	-0.620880
-0.080261	0.211639	-0.613098
-0.089569	0.184631	-0.608215
-0.095520	0.187073	-0.610352
-0.106049	0.256958	-0.624084
-0.121002	0.285034	-0.594635
-0.121307	0.242462	-0.600128
-0.131989	0.194244	-0.612640
-0.110321	0.187073	-0.617371
-0.082245	0.210114	-0.600433
-0.035858	0.240021	-0.616150
-0.022583	0.235138	-0.608215
-0.056152	0.191345	-0.596771
-0.119171	0.148163	-0.614929
-0.147400	0.195465	-0.600891
-0.141602	0.206451	-0.596008
-0.125275	0.234680	-0.608215
-0.132904	0.224304	-0.608215
-0.135193	0.184326	-0.611572
-0.120087	0.205841	-0.611420
-0.110626	0.234528	-0.592651
-0.081482	0.265808	-0.610199
-0.046082	0.238495	-0.606079
-0.026855	0.225372	-0.610199
-0.006866	0.205688	-0.604248
0.013580	0.222473	-0.610504
-0.031891	0.237579	-0.625305
-0.069275	0.248718	-0.617828
-0.127258	0.257416	-0.609894
-0.164032	0.191498	-0.635071
-0.145416	0.146179	-0.623932
-0.108643	0.168610	-0.616302
-0.105438	0.298767	-0.623627
-0.106506	0.309296	-0.637360
-0.084534	0.260010	-0.622101
-0.025787	0.231323	-0.640564
0.009918	0.222626	-0.628204
0.031738	0.269928	-0.612335
0.015717	0.288696	-0.631256
-0.022736	0.298462	-0.619812
-0.102539	0.273590	-0.606384
-0.160522	0.263367	-0.619659
-0.171051	0.285339	-0.625153
-0.142670	0.335693	-0.637054
-0.065308	0.323486	-0.621338
-0.038757	0.329437	-0.602570
-0.059357	0.297546	-0.600128
-0.054932	0.330353	-0.615082
-0.067291	0.356140	-0.601044
-0.115509	0.360413	-0.608215
-0.174866	0.347748	-0.594330
-0.205688	0.321198	-0.599823
-0.192566	0.294037	-0.616608
-0.134125	0.301666	-0.608063
-0.048676	0.374451	-0.598602
-0.022278	0.371857	-0.623474
-0.029144	0.388031	-0.609131
-0.074158	0.370789	-0.609741
-0.114899	0.359344	-0.611572
-0.141449	0.376282	-0.603333
-0.168610	0.406799	-0.604401
-0.147705	0.397339	-0.621490
-0.104980	0.368347	-0.610352
-0.040436	0.340729	-0.613556
-0.006409	0.347748	-0.604553
-0.010071	0.376282	-0.610352
-0.042114	0.364990	-0.634766
-0.043030	0.357971	-0.617218
-0.034180	0.360718	-0.622559
-0.027313	0.382996	-0.622559
-0.030365	0.428314	-0.611420
-0.053864	0.469818	-0.628357
-0.073090	0.422821	-0.647736
-0.077209	0.445862	-0.631409
-0.113068	0.411682	-0.640717
-0.136871	0.410461	-0.643616
-0.116882	0.438232	-0.628204
-0.073700	0.465546	-0.627747
-0.094910	0.426025	-0.662231
-0.099945	0.361481	-0.654907
-0.110016	0.431366	-0.651093
-0.119324	0.437469	-0.669403
-0.094147	0.511932	-0.658112
-0.125885	0.496826	-0.656281
-0.169983	0.459900	-0.669861
-0.154419	0.426788	-0.666656
-0.107269	0.472717	-0.648193
-0.061798	0.495148	-0.652313
-0.032196	0.520172	-0.655212
-0.022125	0.462189	-0.652466
-0.021973	0.419769	-0.656891
-0.020752	0.432739	-0.679169
-0.045471	0.437164	-0.670929
-0.083160	0.449677	-0.671082
-0.101471	0.395966	-0.679626
-0.050964	0.335693	-0.684662
-0.029602	0.333252	-0.668488
-0.056000	0.370178	-0.692596
-0.102997	0.374146	-0.696106
-0.148926	0.395660	-0.697784
-0.137939	0.353088	-0.714722
-0.114288	0.311127	-0.720215
-0.086060	0.311432	-0.715027
-0.074615	0.325775	-0.708771
-0.054016	0.393066	-0.718384
-0.051270	0.358734	-0.724640
-0.053864	0.304565	-0.729828
-0.084229	0.305939	-0.722656
-0.159760	0.300598	-0.732269
-0.188446	0.314178	-0.730591
-0.169220	0.358582	-0.724792
-0.135651	0.323029	-0.723114
-0.133667	0.279541	-0.745850
-0.144043	0.283203	-0.737915
-0.160522	0.303955	-0.725861
-0.126190	0.352325	-0.715637
-0.144653	0.323792	-0.739136
-0.117798	0.299072	-0.716553
-0.108795	0.226288	-0.720825
-0.069427	0.244141	-0.729065
-0.023041	0.295410	-0.730743
0.007324	0.347595	-0.706482
-0.008850	0.326538	-0.688934
-0.046539	0.233917	-0.716553
-0.058136	0.230713	-0.728455
-0.052795	0.234375	-0.724487
-0.070648	0.260925	-0.704956
-0.086365	0.224152	-0.718994
-0.078278	0.201263	-0.717316
-0.055389	0.205078	-0.728912
-0.051422	0.207977	-0.717316
-0.065765	0.205688	-0.711670
-0.087128	0.236359	-0.705872
-0.101471	0.240936	-0.727386
-0.094452	0.228729	-0.706177
-0.077972	0.202332	-0.680847
-0.111084	0.188293	-0.698242
-0.124512	0.236664	-0.691376
-0.139923	0.248413	-0.679779
-0.128632	0.196991	-0.666046
-0.127411	0.178375	-0.656891
-0.128784	0.216827	-0.656738
-0.124817	0.198822	-0.642090
-0.123291	0.202179	-0.641632
-0.121765	0.188446	-0.617218
-0.142670	0.151215	-0.616455
-0.133362	0.143280	-0.599823
-0.101471	0.197144	-0.575714
-0.081177	0.189362	-0.588379
-0.083771	0.227661	-0.584869
-0.090179	0.234985	-0.557404
-0.069427	0.183258	-0.546570
-0.062103	0.161133	-0.564728
-0.011597	0.204468	-0.527039
0.016785	0.230865	-0.512085
0.019531	0.216675	-0.509338
-0.009766	0.167236	-0.490417
-0.029907	0.121460	-0.502319
-0.043335	0.137024	-0.475616
-0.038452	0.205688	-0.460205
-0.048065	0.235596	-0.463257
-0.061798	0.203705	-0.479736
-0.057678	0.193329	-0.454712
-0.058441	0.189209	-0.445557
-0.068054	0.187225	-0.451050
-0.098572	0.207520	-0.425720
-0.114441	0.224915	-0.432129
-0.104828	0.203857	-0.417786
-0.085754	0.158234	-0.410614
-0.088806	0.170288	-0.387115
-0.092926	0.214081	-0.390015
-0.093384	0.250244	-0.364227
-0.075226	0.222473	-0.375366
-0.080109	0.183716	-0.350189
-0.133057	0.197601	-0.358734
-0.183258	0.186615	-0.357208
-0.219727	0.211029	-0.356903
-0.188293	0.178223	-0.330658
-0.166473	0.191803	-0.332336
-0.157471	0.148773	-0.331268
-0.184174	0.161285	-0.342865
-0.136566	0.216217	-0.314178
-0.123901	0.238190	-0.308533
-0.121613	0.222931	-0.321045
-0.112305	0.178223	-0.314789
-0.051422	0.177155	-0.287781
0.014496	0.196686	-0.300751
0.081787	0.255890	-0.289154
0.058289	0.226288	-0.290375
0.034027	0.213623	-0.279236
-0.024261	0.149994	-0.303650
-0.039825	0.164490	-0.298462
-0.022736	0.203400	-0.289459
-0.036316	0.214691	-0.289612
-0.069733	0.207672	-0.277863
-0.081940	0.165710	-0.294189
-0.097961	0.149841	-0.284271
-0.147705	0.166168	-0.289612
-0.183563	0.192871	-0.283813
-0.193024	0.184479	-0.271149
-0.154419	0.172577	-0.276947
-0.123138	0.092773	-0.278015
-0.090942	0.102386	-0.263519
-0.062714	0.126953	-0.249634
-0.054474	0.097504	-0.263824
-0.057831	0.016632	-0.249634
-0.083008	-0.029755	-0.250702
-0.120850	-0.083923	-0.251465
-0.153961	-0.133514	-0.254822
-0.133667	-0.137329	-0.262756
-0.086975	-0.121307	-0.255127
-0.068817	-0.110474	-0.240784
-0.079041	-0.160065	-0.244446
-0.055542	-0.119476	-0.222626
-0.066681	-0.053406	-0.200653
-0.083008	0.055084	-0.212555
-0.134430	0.100555	-0.215454
-0.157166	0.137787	-0.205536
-0.139008	0.137939	-0.197296
-0.081482	0.269470	-0.197449
-0.042572	0.461273	-0.189362
-0.022736	0.625000	-0.205688
-0.010986	0.750580	-0.197601
-0.021210	0.841217	-0.175323
-0.054932	1.006470	-0.200500
-0.057983	1.202087	-0.204620
-0.054474	1.393280	-0.197601
-0.059509	1.467590	-0.223236
-0.028687	1.515961	-0.224609
-0.020294	1.631165	-0.218201
-0.039062	1.826782	-0.201721
-0.095673	1.964111	-0.212555
-0.154114	2.078247	-0.207825
-0.183411	2.173615	-0.204926
-0.192566	2.209320	-0.202484
-0.191345	2.330933	-0.211792
-0.168610	2.545624	-0.181580
-0.171051	2.648926	-0.173492
-0.170746	2.647095	-0.173492
-0.163727	2.652893	-0.162354
-0.190430	2.650909	-0.155334
-0.232239	2.654877	-0.173645
-0.210724	2.653656	-0.172882
-0.192413	2.506561	-0.157013
-0.162659	2.218628	-0.156097
-0.143890	1.929321	-0.169830
-0.137329	1.650696	-0.172119
-0.077515	1.410522	-0.163574
-0.067444	1.203156	-0.163269
-0.040588	0.976868	-0.162964
-0.070190	0.738525	-0.178833
-0.057068	0.521698	-0.182800
-0.041656	0.345306	-0.171967
-0.032959	0.238190	-0.188751
-0.048370	0.181427	-0.181427
-0.056610	0.084229	-0.165253
-0.058899	-0.050201	-0.161591
-0.059509	-0.082550	-0.196075
-0.040283	-0.093079	-0.193024
0.007629	-0.068359	-0.191803
0.041046	-0.100250	-0.201721
0.103455	-0.111237	-0.194855
0.103455	-0.165710	-0.216980
0.101776	-0.130920	-0.199127
0.052032	-0.076599	-0.185242
-0.021362	-0.019531	-0.177765
-0.105743	-0.006866	-0.193939
-0.170288	-0.015717	-0.191040
-0.259399	-0.027771	-0.188141
-0.326996	0.002441	-0.186920
-0.360413	0.082703	-0.177002
-0.358429	0.113068	-0.179291
-0.323944	0.066071	-0.158539
-0.312347	0.059967	-0.154266
-0.342560	0.092316	-0.166779
-0.282288	0.154572	-0.160217
-0.194702	0.245819	-0.152130
-0.164795	0.234985	-0.156250
-0.043335	0.212250	-0.159912
0.239716	0.177765	-0.150909
0.689545	0.221863	-0.153198
1.008606	0.240936	-0.153809
0.894623	0.260162	-0.156708
0.481110	0.263977	-0.154877
0.042725	0.224152	-0.141144
-0.428925	0.190582	-0.137939
-0.921021	0.228271	-0.145111
-1.199646	0.268097	-0.145721
-0.983429	0.251160	-0.150757
-0.116730	0.238495	-0.134125
1.235352	0.196686	-0.152893
2.437897	0.216217	-0.165253
2.688141	0.228424	-0.175476
2.671051	0.245209	-0.187683
1.405487	0.220642	-0.172272
-0.480499	0.178223	-0.190125
-2.448120	0.169525	-0.194092
-2.626953	0.187225	-0.198212
-2.623749	0.232849	-0.204620
-2.617493	0.219421	-0.238953
-2.636414	0.177307	-0.254974
-2.151184	0.140839	-0.273132
-0.174866	0.151825	-0.285492
1.600647	0.189209	-0.300293
2.693634	0.209503	-0.329437
2.687073	0.200500	-0.317078
2.681580	0.169220	-0.356750
1.913910	0.154724	-0.391846
1.138916	0.181427	-0.411224
0.552521	0.202942	-0.392761
0.171356	0.230103	-0.388489
-0.099487	0.225677	-0.370178
-0.308533	0.164490	-0.352783
-0.499115	0.161743	-0.353088
-0.698853	0.153351	-0.333862
-0.827026	0.190125	-0.346375
-0.933380	0.202484	-0.356445
-0.876312	0.216370	-0.369873
-0.770416	0.194855	-0.354462
-0.574188	0.175781	-0.342865
-0.312347	0.184021	-0.338745
0.075531	0.207825	-0.342255
0.528412	0.197754	-0.306091
0.902252	0.173340	-0.282288
1.083221	0.138092	-0.293274
1.054840	0.159454	-0.271759
0.892334	0.208893	-0.252380
0.650330	0.198975	-0.234985
0.381012	0.132294	-0.219421
0.120850	0.128174	-0.184631
-0.136566	0.181580	-0.178528
-0.306091	0.175171	-0.165405
-0.426483	0.197601	-0.156097
-0.520172	0.198059	-0.172729
-0.596466	0.188904	-0.188293
-0.664825	0.171051	-0.177155
-0.774689	0.186157	-0.192871
-0.897675	0.247345	-0.209503
-0.984955	0.229797	-0.217133
-1.017456	0.211029	-0.227661
-1.031342	0.183716	-0.238342
-0.931854	0.184326	-0.238495
-0.754089	0.192108	-0.269928
-0.447998	0.225830	-0.238647
-0.145416	0.208435	-0.242310
0.148773	0.173645	-0.231323
0.427094	0.165863	-0.243530
0.640259	0.197449	-0.227203
0.676727	0.230103	-0.215607
0.609436	0.225525	-0.219269
0.506439	0.212097	-0.193329
0.295258	0.186615	-0.169983
0.101929	0.191803	-0.151978
0.113373	0.224762	-0.114288
0.241089	0.255585	-0.069733
0.234070	0.227661	-0.008698
0.134583	0.186768	0.026245
-0.014496	0.184937	0.061188
-0.196991	0.182037	0.089569
-0.325317	0.226593	0.129852
-0.316467	0.216827	0.177612
-0.196228	0.179749	0.202637
-0.096283	0.127258	0.263519
-0.051422	0.140839	0.325470
-0.003204	0.173950	0.392914
0.002594	0.211334	0.443573
0.016022	0.215607	0.521545
0.019989	0.193024	0.627747
0.021667	0.153961	0.728149
0.056763	0.154572	0.835571
0.057983	0.228729	0.964661
0.020294	0.242920	1.068420
-0.051270	0.207520	1.230011
-0.101776	0.229950	1.362000
-0.149384	0.253754	1.465759
-0.180054	0.231323	1.614380
-0.190582	0.206299	1.752319
-0.218201	0.172424	1.899719
-0.205078	0.144196	2.042542
-0.154266	0.166931	2.180023
-0.103607	0.218506	2.312775
-0.122223	0.250702	2.443848
-0.162048	0.247650	2.561035
-0.172729	0.262299	2.664337
-0.204620	0.221405	2.714691
-0.234070	0.215759	2.726593
-0.247345	0.243378	2.727203
-0.230255	0.303497	2.729492
-0.194550	0.265656	2.725220
-0.165100	0.228119	2.725067
-0.130005	0.220184	2.714386
-0.113068	0.224609	2.717133
-0.122528	0.265961	2.724304
-0.146332	0.281830	2.720795
-0.159760	0.266113	2.726746
-0.202942	0.218964	2.728729
-0.218964	0.218353	2.733612
-0.209351	0.250702	2.721100
-0.222015	0.249481	2.715607
-0.186310	0.233459	2.729950
-0.151978	0.229187	2.716827
-0.101318	0.200195	2.724152
-0.016785	0.213623	2.726135
0.030823	0.249481	2.728119
0.052490	0.275879	2.725372
0.063629	0.258026	2.725067
0.036011	0.203094	2.730713
0.008698	0.170441	2.714691
0.019836	0.201263	2.714691
0.048828	0.258942	2.714081
0.036621	0.252991	2.717896
0.007477	0.237122	2.720947
-0.029602	0.199890	2.723541
-0.044861	0.218658	2.726746
-0.033875	0.229797	2.717133
-0.022430	0.264587	2.729797
-0.009766	0.281525	2.730408
-0.008698	0.221710	2.714539
0.014191	0.210266	2.718506
0.000916	0.256653	2.727814
-0.032043	0.295868	2.724304
-0.099792	0.295868	2.721252
-0.127716	0.277863	2.731476
-0.149384	0.236664	2.723541
-0.159760	0.245361	2.723236
-0.143127	0.210419	2.715912
-0.105743	0.287170	2.724152
-0.072174	0.292816	2.720184
-0.065765	0.256500	2.729492
-0.096893	0.235443	2.724762
-0.136566	0.238190	2.726593
-0.195160	0.257721	2.719116
-0.207977	0.270844	2.730408
-0.185852	0.265656	2.708893
-0.132904	0.243530	2.726440
-0.085907	0.243988	2.728882
-0.034180	0.274963	2.722015
0.002594	0.324707	2.724152
-0.010834	0.299835	2.727203
-0.083160	0.256042	2.722473
-0.168304	0.224457	2.718658
-0.217743	0.222015	2.719421
-0.204010	0.255737	2.729340
-0.197601	0.300446	2.721405
-0.171967	0.300598	2.719879
-0.124054	0.220642	2.718048
-0.066833	0.218811	2.729645
-0.011139	0.246735	2.728882
0.024261	0.262299	2.731781
0.030670	0.253601	2.723999
0.034790	0.267792	2.718658
0.043335	0.240936	2.721100
-0.002899	0.269318	2.721558
-0.081177	0.354919	2.721100
-0.140228	0.343628	2.725220
-0.171967	0.274506	2.728729
-0.171967	0.245209	2.729797
-0.212708	0.227203	2.723389
-0.206909	0.252991	2.728577
-0.194092	0.296936	2.718658
-0.125275	0.297546	2.712860
-0.039978	0.258789	2.720642
0.014801	0.226135	2.722321
0.012360	0.266113	2.724915
-0.019379	0.307922	2.715302
-0.048981	0.300140	2.722473
-0.064087	0.295410	2.724915
-0.083160	0.283966	2.720947
-0.124207	0.263367	2.718353
-0.134430	0.266724	2.719421
-0.121155	0.339355	2.726593
-0.106354	0.298462	2.714081
-0.082855	0.254364	2.718964
-0.082092	0.242310	2.730255
-0.088806	0.253601	2.726593
-0.098572	0.294189	2.723846
-0.088196	0.337372	2.728729
-0.112000	0.311127	2.718811
-0.098267	0.253754	2.717590
-0.085754	0.240479	2.720642
-0.046997	0.281982	2.723694
-0.019531	0.322876	2.723083
0.007172	0.307922	2.724152
0.054016	0.275269	2.725983
0.107727	0.235443	2.723389
0.139923	0.280457	2.715454
0.069427	0.330353	2.723999
-0.062408	0.341187	2.719727
-0.133057	0.321503	2.726440
-0.214691	0.287323	2.719421
-0.264893	0.272369	2.721252
-0.287018	0.294495	2.738800
-0.262451	0.312805	2.724762
-0.195770	0.336151	2.723236
-0.113983	0.302277	2.712708
-0.031891	0.236969	2.722015
0.007629	0.250092	2.718658
0.042877	0.279388	2.715454
0.059967	0.282898	2.728271
0.031891	0.313721	2.735596
-0.015869	0.305328	2.723999
-0.066681	0.260773	2.723846
-0.118408	0.250244	2.728729
-0.146790	0.308380	2.718658
-0.146179	0.341949	2.723541
-0.089874	0.298767	2.719879
-0.044708	0.268402	2.725067
-0.045471	0.265198	2.729034
-0.088348	0.279388	2.723694
-0.136566	0.298004	2.660370
-0.186920	0.299988	2.635193
-0.181580	0.246735	2.587891
-0.161133	0.219269	2.539673
-0.132141	0.261383	2.490082
-0.094147	0.271606	2.477264
-0.059357	0.267639	2.458649
-0.039520	0.283203	2.402496
-0.012665	0.256958	2.382355
0.024719	0.252380	2.349243
0.025024	0.268555	2.303772
-0.002441	0.299530	2.291565
-0.033112	0.277710	2.272034
-0.067596	0.269470	2.241516
-0.109253	0.249023	2.231750
-0.151062	0.258179	2.194672
-0.218811	0.252533	2.121582
-0.185852	0.263367	2.124023
-0.123749	0.258179	2.105255
-0.091705	0.197296	2.084961
-0.130005	0.186310	2.038116
-0.128021	0.202484	2.003784
-0.108490	0.235443	1.972504
-0.087433	0.239868	1.946259
-0.117035	0.231934	1.927338
-0.154877	0.226746	1.910095
-0.163574	0.234375	1.888275
-0.106201	0.262909	1.867828
-0.077209	0.299530	1.830444
-0.059967	0.258484	1.824341
-0.042877	0.202942	1.792450
-0.030975	0.180359	1.777039
-0.013428	0.215607	1.746826
-0.039520	0.264282	1.718750
-0.104218	0.236816	1.697235
-0.148621	0.210266	1.671600
-0.166016	0.165863	1.635742
-0.128174	0.171051	1.613464
-0.104828	0.209351	1.623077
-0.114288	0.195312	1.600952
-0.130920	0.180054	1.537781
-0.099030	0.200653	1.535797
-0.063324	0.210571	1.504669
-0.038910	0.240326	1.466675
-0.022583	0.276794	1.483612
-0.026093	0.261383	1.444550
-0.016327	0.236511	1.450043
-0.036621	0.200653	1.409912
-0.074158	0.219574	1.384888
-0.126953	0.230865	1.357422
-0.148010	0.252228	1.345825
-0.134888	0.236206	1.329041
-0.122375	0.184479	1.306458
-0.116730	0.167236	1.309357
-0.155487	0.180206	1.274719
-0.138397	0.215607	1.278229
-0.123749	0.258942	1.234436
-0.121002	0.230103	1.198120
-0.100861	0.174713	1.185455
-0.049744	0.175629	1.207886
-0.042419	0.179901	1.164093
-0.052948	0.234680	1.118164
-0.077515	0.230255	1.117859
-0.079193	0.252228	1.124878
-0.076599	0.222626	1.083679
-0.050812	0.195618	1.062622
-0.041656	0.240021	1.045074
-0.068970	0.260773	1.001587
-0.067444	0.234985	0.984344
-0.032196	0.190430	0.950165
0.005493	0.186157	0.926666
-0.043945	0.199432	0.908203
-0.069427	0.205841	0.885925
-0.086212	0.226135	0.862427
-0.129395	0.229797	0.827332
-0.142212	0.202332	0.814819
-0.119171	0.212097	0.804291
-0.099487	0.270233	0.781250
-0.089874	0.253143	0.745087
-0.043945	0.210266	0.729675
-0.032501	0.179749	0.715637
-0.015411	0.190735	0.689392
-0.040436	0.200806	0.674744
-0.038300	0.218964	0.653992
-0.006256	0.212555	0.637817
0.041046	0.183868	0.631104
0.034943	0.151215	0.605469
-0.019379	0.173950	0.589142
-0.071716	0.198517	0.591583
-0.124512	0.206299	0.558319
-0.148315	0.220032	0.549316
-0.149384	0.190582	0.527191
-0.137482	0.186768	0.529022
-0.117340	0.184784	0.506134
-0.108185	0.207062	0.475769
-0.083466	0.198669	0.472107
-0.033264	0.194244	0.460052
-0.036011	0.157623	0.440979
-0.054016	0.144043	0.407104
-0.067444	0.152893	0.382538
-0.064697	0.205688	0.387115
-0.070953	0.193787	0.352325
-0.054932	0.103302	0.346832
-0.014191	0.083771	0.322113
-0.009613	0.124207	0.308228
-0.024567	0.171967	0.287323
-0.048676	0.204010	0.272369
-0.062714	0.210571	0.229034
-0.089417	0.163879	0.207214
-0.116882	0.153961	0.198059
-0.163422	0.171509	0.172119
-0.160522	0.213470	0.165558
-0.146790	0.168457	0.151062
-0.134430	0.154877	0.120850
-0.113220	0.151672	0.097504
-0.163879	0.144043	0.058136
-0.167389	0.153961	0.052643
-0.129242	0.155029	0.029602
-0.101318	0.121613	-0.003510
-0.078583	0.074615	-0.017395
-0.076141	0.106201	-0.055084
-0.069275	0.182953	-0.070801
-0.076447	0.195618	-0.103455
-0.121002	0.185699	-0.141449
-0.045624	0.179443	-0.178680
0.063324	0.157471	-0.206451
-0.137024	0.155487	-0.255127
-0.466461	0.193024	-0.285797
-0.644531	0.181732	-0.340576
-0.846405	0.118103	-0.390472
-0.549469	0.119629	-0.455322
0.424652	0.117187	-0.511780
1.089325	0.163116	-0.567017
1.147614	0.177460	-0.635376
0.774536	0.185394	-0.676575
0.074921	0.172577	-0.704041
-0.594177	0.101471	-0.763092
-1.007233	0.135651	-0.840302
-1.211853	0.179443	-0.886536
-1.210632	0.203247	-0.938263
-0.863037	0.180206	-1.022797
-0.239563	0.167847	-1.068268
0.343781	0.139313	-1.134033
0.732269	0.152283	-1.179199
0.962067	0.194702	-1.238251
0.923157	0.199890	-1.305695
0.665741	0.139618	-1.350098
0.213165	0.117340	-1.398773
-0.279541	0.142059	-1.461334
-0.619965	0.182953	-1.534729
-0.707703	0.200806	-1.597443
-0.467987	0.158386	-1.639557
-0.064697	0.080566	-1.693420
0.343781	0.066986	-1.730804
0.595245	0.117645	-1.753998
0.658569	0.121765	-1.747437
0.527496	0.155945	-1.733093
0.235138	0.144501	-1.716003
-0.123291	0.115204	-1.714478
-0.489044	0.140839	-1.652679
-0.753021	0.176544	-1.580811
-0.886993	0.176086	-1.543732
-0.796356	0.128326	-1.464081
-0.564423	0.146332	-1.394348
-0.283966	0.137939	-1.339874
-0.056000	0.132141	-1.285553
0.088043	0.156250	-1.221771
0.148773	0.174561	-1.188507
0.107117	0.144196	-1.161804
0.008850	0.087280	-1.134949
-0.153198	0.102234	-1.128998
-0.311584	0.109863	-1.120758
-0.487061	0.171204	-1.134491
-0.595703	0.158386	-1.144867
-0.462952	0.142822	-1.145172
-0.146942	0.101013	-1.148834
0.141144	0.146332	-1.148376
0.292053	0.211639	-1.154480
0.390320	0.223846	-1.145172
0.507660	0.173340	-1.121368
0.588379	0.142822	-1.112823
0.550690	0.158081	-1.087341
0.392761	0.153961	-1.065216
0.140228	0.178986	-1.040649
-0.096130	0.169983	-1.001587
-0.329590	0.133514	-0.969086
-0.522461	0.084381	-0.913696
-0.653381	0.106812	-0.892639
-0.695953	0.131226	-0.857544
-0.598907	0.197144	-0.817108
-0.457916	0.189362	-0.799103
-0.267181	0.135040	-0.776520
-0.040283	0.083771	-0.759277
0.147858	0.110931	-0.743103
0.227356	0.157928	-0.727539
0.180054	0.140381	-0.703278
0.066223	0.120392	-0.676880
-0.096130	0.100098	-0.670471
-0.223389	0.143738	-0.630951
-0.327301	0.166321	-0.610352
-0.366669	0.177002	-0.600891
-0.287933	0.160828	-0.559692
-0.177002	0.091553	-0.560455
-0.072937	0.085144	-0.520935
0.016327	0.124054	-0.512695
0.061035	0.176544	-0.476379
0.057068	0.141602	-0.468140
0.056763	0.125885	-0.446777
0.019989	0.108032	-0.426941
-0.029602	0.140076	-0.406952
-0.010529	0.210266	-0.388184
0.022736	0.231476	-0.363922
0.043793	0.162811	-0.356903
0.041504	0.133362	-0.320587
-0.003357	0.139465	-0.329285
-0.050659	0.153809	-0.333557
-0.032806	0.204315	-0.319519
-0.001984	0.194244	-0.304565
-0.016785	0.149384	-0.308075
-0.055695	0.081329	-0.304565
-0.101776	0.106201	-0.290985
-0.157623	0.122223	-0.309753
-0.205688	0.155792	-0.294342
-0.256805	0.168762	-0.289764
-0.276337	0.156555	-0.305176
-0.292664	0.142822	-0.303192
-0.249634	0.144043	-0.292206
-0.199127	0.175781	-0.306091
-0.170441	0.159760	-0.305023
-0.165558	0.129089	-0.304871
-0.147552	0.118103	-0.312805
-0.115204	0.143280	-0.314484
-0.079041	0.146942	-0.315857
-0.069580	0.159149	-0.310516
-0.059204	0.156555	-0.310669
-0.021057	0.112000	-0.317993
0.004730	0.075531	-0.321808
0.008240	0.119934	-0.337830
0.006714	0.133057	-0.330353
-0.009155	0.150757	-0.310974
-0.026245	0.179901	-0.325165
-0.022125	0.128326	-0.332031
-0.018921	0.130310	-0.329742
-0.006409	0.119629	-0.326538
-0.018616	0.161896	-0.332642
-0.030975	0.167847	-0.330353
-0.058899	0.131989	-0.334167
-0.094299	0.131531	-0.357971
-0.140381	0.113220	-0.365295
-0.160675	0.120087	-0.362549
-0.184326	0.155640	-0.359344
-0.214233	0.160217	-0.358887
-0.193939	0.141754	-0.367279
-0.135040	0.122070	-0.366669
-0.073090	0.173645	-0.377960
-0.044556	0.211487	-0.366516
-0.084686	0.184021	-0.387726
-0.108643	0.160980	-0.390472
-0.097504	0.120239	-0.393677
-0.076599	0.121460	-0.419464
-0.046997	0.189362	-0.407867
-0.043640	0.208282	-0.433655
-0.046539	0.140991	-0.422363
-0.043030	0.101624	-0.454865
-0.047455	0.099792	-0.457001
-0.049286	0.126038	-0.475464
-0.080872	0.181122	-0.471497
-0.129089	0.191498	-0.487671
-0.143280	0.159607	-0.485077
-0.153809	0.113220	-0.498657
-0.188751	0.144806	-0.506287
-0.208435	0.169678	-0.511475
-0.205994	0.166626	-0.524597
-0.146332	0.156708	-0.540009
-0.065918	0.126953	-0.541840
-0.051422	0.090637	-0.562134
-0.057831	0.122070	-0.578156
-0.052490	0.163727	-0.572357
-0.019531	0.170746	-0.607605
0.020447	0.146332	-0.596619
-0.047607	0.106506	-0.621033
-0.076141	0.110779	-0.623932
-0.097198	0.136871	-0.631561
-0.096283	0.155792	-0.652008
-0.108032	0.144958	-0.668488
-0.094757	0.105438	-0.652466
-0.066223	0.091400	-0.679169
-0.037994	0.115204	-0.708466
-0.006714	0.160675	-0.706024
-0.027161	0.192108	-0.703735
-0.040894	0.143127	-0.742035
-0.060577	0.091248	-0.744324
-0.073700	0.089264	-0.754700
-0.071106	0.150757	-0.758514
-0.072632	0.187683	-0.760498
-0.070343	0.126953	-0.761108
-0.064087	0.069122	-0.789642
-0.074463	0.101471	-0.803223
-0.130615	0.140686	-0.815735
-0.152893	0.180664	-0.824738
-0.138550	0.182648	-0.830231
-0.114136	0.158386	-0.859680
-0.089722	0.083313	-0.886383
-0.092621	0.106659	-0.899506
-0.097809	0.129089	-0.912323
-0.088196	0.130310	-0.922089
-0.066681	0.146790	-0.932617
-0.083466	0.115509	-0.985107
-0.085449	0.135651	-0.981445
-0.122375	0.139923	-1.000671
-0.105286	0.173187	-1.001892
-0.069733	0.181122	-1.007080
-0.028076	0.156555	-1.012268
-0.034485	0.111389	-1.015472
-0.085754	0.087280	-1.052551
-0.117493	0.123901	-1.046143
-0.109558	0.151215	-1.065979
-0.093842	0.153656	-1.074219
-0.112762	0.108795	-1.077271
-0.126648	0.078888	-1.064606
-0.164642	0.076141	-1.089172
-0.153961	0.088501	-1.085052
-0.114594	0.141907	-1.110535
-0.067139	0.155487	-1.117249
-0.042877	0.097656	-1.139374
0.006561	0.038757	-1.141968
0.054169	0.059662	-1.151886
0.002747	0.132751	-1.167145
-0.073853	0.125275	-1.202393
-0.126190	0.107727	-1.179504
-0.130310	0.102692	-1.179657
-0.139313	0.099792	-1.219940
-0.194550	0.107574	-1.234436
-0.227051	0.156097	-1.216278
-0.210266	0.146027	-1.235809
-0.174561	0.090942	-1.265869
-0.124054	0.086212	-1.258240
-0.086670	0.106354	-1.270294
-0.073700	0.140839	-1.283417
-0.088959	0.147858	-1.286163
-0.081635	0.144348	-1.284637
-0.100861	0.106354	-1.298676
-0.096436	0.077972	-1.291046
-0.095978	0.064697	-1.330261
-0.085144	0.157318	-1.311188
-0.087280	0.157928	-1.314850
-0.119629	0.128937	-1.318054
-0.162048	0.124207	-1.304779
-0.184631	0.124512	-1.328125
-0.173798	0.161743	-1.339417
-0.157013	0.130310	-1.328583
-0.156250	0.089264	-1.346283
-0.101166	0.048218	-1.337738
-0.011444	0.093994	-1.358795
0.016937	0.113068	-1.377869
-0.013580	0.168762	-1.388397
-0.081329	0.158691	-1.381531
-0.131226	0.111237	-1.396637
-0.118866	0.083923	-1.411743
-0.083771	0.133362	-1.421051
-0.061646	0.178223	-1.404877
-0.026550	0.215302	-1.403809
-0.021057	0.193481	-1.410065
-0.016632	0.147247	-1.425629
-0.074615	0.089569	-1.441803
-0.113831	0.110626	-1.425476
-0.157318	0.196838	-1.426697
-0.173187	0.182648	-1.426544
-0.146179	0.143280	-1.433716
-0.124969	0.126953	-1.440735
-0.114746	0.165253	-1.450958
-0.116119	0.148621	-1.484375
-0.078583	0.181122	-1.458282
-0.051575	0.157013	-1.476440
-0.032349	0.141907	-1.481171
-0.039825	0.129852	-1.483307
-0.007477	0.188141	-1.480255
0.012970	0.242767	-1.491852
0.054321	0.197296	-1.503296
0.044708	0.167542	-1.514435
-0.017395	0.120697	-1.518555
-0.041046	0.145874	-1.526947
-0.046844	0.172272	-1.527252
-0.043945	0.181580	-1.561737
-0.033875	0.181732	-1.547394
-0.056305	0.127411	-1.572418
-0.097351	0.118561	-1.587982
-0.104218	0.168304	-1.602631
-0.092773	0.192871	-1.579742
-0.073242	0.191498	-1.613617
-0.071869	0.171814	-1.625061
-0.074310	0.104523	-1.618195
-0.012665	0.116882	-1.642761
0.068817	0.149841	-1.659851
0.074005	0.229492	-1.647491
-0.010986	0.162201	-1.651459
-0.118103	0.093384	-1.662292
-0.156555	0.095062	-1.690979
-0.162048	0.130615	-1.688538
-0.156708	0.182648	-1.692657
-0.175629	0.166168	-1.710052
-0.178375	0.123291	-1.751251
-0.202942	0.074463	-1.756592
-0.205383	0.112915	-1.747284
-0.191498	0.142059	-1.749725
-0.141602	0.149231	-1.751251
-0.088654	0.162659	-1.759033
-0.035553	0.142365	-1.772003
-0.030670	0.137939	-1.782074
-0.042419	0.140686	-1.808167
-0.029755	0.197449	-1.833954
-0.000610	0.175934	-1.847076
-0.006714	0.130920	-1.864014
-0.025940	0.109558	-1.874237
-0.060883	0.110016	-1.883087
-0.063934	0.128479	-1.883698
-0.091400	0.143890	-1.895142
-0.094452	0.145416	-1.899109
-0.128784	0.107574	-1.924896
-0.110016	0.069733	-1.922455
-0.096588	0.085297	-1.945801
-0.096436	0.093079	-1.941223
-0.125427	0.093994	-1.959229
-0.135651	0.146332	-1.965332
-0.126495	0.127716	-1.974792
-0.095673	0.154877	-1.978912
-0.059662	0.173645	-1.982269
-0.024109	0.218964	-1.989288
-0.021057	0.193481	-1.988678
-0.031281	0.134888	-1.998749
-0.068512	0.108032	-2.018280
-0.067749	0.130157	-1.994476
-0.094147	0.115051	-2.016754
-0.074768	0.160980	-2.000275
-0.063934	0.136566	-2.015228
-0.028381	0.086823	-2.030792
-0.041809	0.092621	-2.037048
-0.080414	0.130768	-2.048035
-0.127411	0.149536	-2.035217
-0.135651	0.132599	-2.041473
-0.120850	0.156097	-2.032776
-0.128479	0.098419	-2.063904
-0.136719	0.122375	-2.038574
-0.132294	0.152283	-2.037964
-0.097351	0.182190	-2.031097
-0.077209	0.146332	-2.034607
-0.053711	0.126038	-2.011108
-0.068970	0.100250	-2.043610
-0.048828	0.086823	-2.048645
-0.033569	0.138855	-2.042236
-0.066071	0.102844	-2.047577
-0.124969	0.070038	-2.050171
-0.139160	0.052032	-2.060852
-0.141754	0.087128	-2.067719
-0.170898	0.105743	-2.071075
-0.188751	0.146942	-2.062683
-0.208435	0.138702	-2.067413
-0.183258	0.095978	-2.063599
-0.131531	0.088959	-2.043915
-0.115662	0.116272	-2.047729
-0.104065	0.159149	-2.054443
-0.056915	0.179291	-2.035065
-0.015564	0.136261	-2.035828
0.009155	0.081024	-2.036285
-0.007935	0.079956	-2.043610
-0.031281	0.096130	-2.019348
-0.079498	0.121613	-2.023010
-0.081940	0.129395	-2.008209
-0.048218	0.109558	-2.010193
-0.054321	0.062561	-1.994476
-0.084076	0.086365	-2.016449
-0.129700	0.118408	-2.019196
-0.146027	0.141602	-2.019806
-0.151672	0.138855	-2.022552
-0.124817	0.106506	-2.026062
-0.097198	0.089111	-2.004852
-0.041962	0.101318	-2.012634
-0.007477	0.159454	-2.015076
-0.000916	0.149689	-2.027740
-0.021210	0.106964	-2.035370
-0.054474	0.084229	-2.036591
-0.104370	0.078430	-2.049103
-0.086060	0.111389	-2.040863
-0.053101	0.135040	-2.033997
-0.045776	0.116882	-2.042847
-0.023804	0.050201	-2.057648
-0.009613	0.044098	-2.050781
-0.011597	0.096283	-2.068939
-0.049744	0.134888	-2.047577
-0.126190	0.093536	-2.055054
-0.198975	0.070801	-2.064056
-0.216827	0.068665	-2.079163
-0.211945	0.130005	-2.074127
-0.183563	0.192413	-2.065735
-0.128326	0.190582	-2.076263
-0.083618	0.142059	-2.087555
-0.055237	0.111237	-2.092590
-0.058289	0.116577	-2.086639
-0.063782	0.099182	-2.084656
-0.061798	0.136566	-2.063904
-0.054321	0.140839	-2.074890
-0.043182	0.100708	-2.072601
-0.044708	0.066986	-2.049255
-0.084991	0.104828	-2.055817
-0.132294	0.105896	-2.054443
-0.121155	0.115204	-2.059479
-0.100861	0.112000	-2.047882
-0.109100	0.064087	-2.040710
-0.096588	0.057068	-2.032776
-0.094604	0.108337	-2.030334
-0.130157	0.157166	-2.024078
-0.125275	0.159454	-2.028656
-0.138855	0.126495	-2.041931
-0.114288	0.083618	-2.024078
-0.107727	0.095978	-2.012634
-0.065918	0.123291	-2.003937
-0.040283	0.136871	-2.001648
-0.027618	0.135040	-1.989288
-0.018158	0.113983	-1.970062
-0.041809	0.081177	-1.978455
-0.058746	0.093689	-1.970673
-0.085297	0.120392	-1.953583
-0.137329	0.137329	-1.959991
-0.179138	0.148010	-1.929626
-0.183258	0.103149	-1.913910
-0.175934	0.116425	-1.909180
-0.158844	0.123444	-1.878204
-0.087128	0.183716	-1.858215
-0.058746	0.129395	-1.866760
-0.021820	0.108337	-1.859589
-0.025024	0.114594	-1.883698
-0.047913	0.096283	-1.862488
-0.102997	0.114746	-1.868134
-0.146637	0.132141	-1.854401
-0.107574	0.124969	-1.834259
-0.077362	0.051117	-1.841278
-0.042267	0.074005	-1.821899
-0.018921	0.105591	-1.802216
0.000916	0.150299	-1.766663
-0.070648	0.160217	-1.770020
-0.158691	0.116272	-1.753540
-0.207367	0.090485	-1.747589
-0.166321	0.103760	-1.755676
-0.109406	0.167542	-1.769867
-0.069275	0.168915	-1.789398
-0.063934	0.113983	-1.786346
-0.046997	0.111847	-1.740723
-0.027771	0.101776	-1.695557
-0.027618	0.111389	-1.670990
-0.099640	0.147247	-1.665802
-0.236511	0.113373	-1.654816
-0.266418	0.071106	-1.650696
-0.165558	0.040131	-1.630707
-0.028687	0.089264	-1.626282
0.066071	0.119019	-1.600800
0.064850	0.145569	-1.566620
0.007477	0.120087	-1.584320
-0.009155	0.065918	-1.558380
-0.041504	0.049438	-1.541290
-0.112000	0.111847	-1.532135
-0.211945	0.176849	-1.515350
-0.238190	0.174408	-1.505890
-0.197296	0.129242	-1.519623
-0.142059	0.099945	-1.490631
-0.113068	0.083466	-1.499176
-0.117340	0.101471	-1.475983
-0.057526	0.152435	-1.482391
0.019531	0.133972	-1.453705
0.019226	0.091400	-1.461029
-0.014191	0.079346	-1.458740
-0.027313	0.123901	-1.439514
-0.038452	0.145721	-1.426239
-0.020447	0.150604	-1.404419
-0.049896	0.140533	-1.414948
-0.090027	0.092621	-1.399994
-0.109863	0.079651	-1.402283
-0.107269	0.125427	-1.381836
-0.112915	0.165253	-1.396179
-0.154572	0.134430	-1.359863
-0.196228	0.063629	-1.362000
-0.210266	0.023499	-1.372223
-0.150299	0.057983	-1.345062
-0.131989	0.094452	-1.360779
-0.109558	0.135040	-1.349487
-0.091705	0.123138	-1.357727
-0.054169	0.079193	-1.334076
-0.026245	0.080109	-1.342316
-0.032806	0.086975	-1.332703
-0.027313	0.149078	-1.320648
-0.038605	0.166321	-1.354523
-0.022736	0.135498	-1.320496
-0.047455	0.073853	-1.333313
-0.072479	0.084229	-1.300964
-0.104980	0.159454	-1.300049
-0.143127	0.172729	-1.302338
-0.111389	0.130157	-1.293182
-0.077820	0.102997	-1.284485
-0.072937	0.078278	-1.276093
-0.072327	0.097809	-1.253967
-0.077515	0.133057	-1.250763
-0.097198	0.128174	-1.236267
-0.095825	0.126648	-1.213531
-0.106354	0.079193	-1.224670
-0.099487	0.114136	-1.218414
-0.096741	0.124207	-1.203308
-0.074768	0.110626	-1.200256
-0.068359	0.140991	-1.215363
-0.096588	0.128174	-1.188507
-0.122070	0.107574	-1.165009
-0.105896	0.109406	-1.132202
-0.048676	0.122986	-1.162872
-0.044403	0.115051	-1.165619
-0.027466	0.117035	-1.125641
-0.030365	0.109711	-1.110535
-0.032959	0.104523	-1.103516
-0.042725	0.114899	-1.127014
-0.077820	0.139313	-1.110229
-0.129547	0.122223	-1.088715
-0.158997	0.066833	-1.077271
-0.131531	0.071259	-1.073151
-0.098572	0.126801	-1.048126
-0.112305	0.137177	-1.032562
-0.134277	0.118256	-1.036530
-0.144653	0.086517	-1.040039
-0.115356	0.061951	-1.026154
-0.094452	0.095978	-0.999451
-0.091400	0.144043	-0.991669
-0.080566	0.168457	-0.985260
-0.075073	0.073700	-0.978851
-0.111237	0.034332	-0.968018
-0.187378	0.049286	-0.962982
-0.193176	0.099487	-0.954437
-0.175323	0.141754	-0.934143
-0.131531	0.149994	-0.930023
-0.082092	0.133209	-0.905151
-0.052643	0.071411	-0.876007
-0.056915	0.077362	-0.892487
-0.059814	0.104828	-0.875854
-0.038452	0.133667	-0.861359
-0.037384	0.129547	-0.856323
-0.024261	0.136871	-0.829620
-0.042114	0.095062	-0.816803
-0.072937	0.095825	-0.820923
-0.099640	0.139771	-0.827332
-0.121613	0.158997	-0.813751
-0.147095	0.118561	-0.799713
-0.167389	0.083923	-0.796356
-0.158844	0.092926	-0.807953
-0.132294	0.086517	-0.805359
-0.097656	0.120544	-0.784912
-0.101929	0.107117	-0.792694
-0.077362	0.099640	-0.794525
-0.041351	0.064545	-0.783386
-0.017853	0.073547	-0.772400
-0.034180	0.108948	-0.774536
-0.104218	0.128021	-0.767822
-0.155792	0.129242	-0.749359
-0.144348	0.096893	-0.754089
-0.140686	0.098114	-0.762634
-0.131226	0.111847	-0.743103
-0.115509	0.142975	-0.730743
-0.068359	0.110626	-0.741119
-0.001221	0.098877	-0.730133
-0.014191	0.070343	-0.719757
-0.054169	0.089264	-0.724335
-0.087433	0.130005	-0.716248
-0.089111	0.136719	-0.701904
-0.065765	0.120697	-0.697021
-0.083618	0.071411	-0.697174
-0.103912	0.048218	-0.698395
-0.113373	0.097198	-0.700226
-0.092010	0.137634	-0.688782
-0.080719	0.126190	-0.681152
-0.095520	0.102386	-0.688019
-0.083313	0.073395	-0.673065
-0.064850	0.062561	-0.661011
-0.055084	0.111847	-0.668488
-0.044708	0.157471	-0.665894
-0.070038	0.130005	-0.661926
-0.101624	0.121002	-0.666809
-0.119476	0.126343	-0.656891
-0.111694	0.105133	-0.645447
-0.090485	0.144196	-0.653992
-0.086823	0.141754	-0.639038
-0.072327	0.098877	-0.648346
-0.063782	0.051422	-0.648346
-0.033875	0.050659	-0.649261
-0.013275	0.099945	-0.653381
-0.016327	0.116425	-0.618744
-0.035706	0.100861	-0.655060
-0.021667	0.100861	-0.637207
-0.010071	0.117493	-0.624237
-0.028381	0.129852	-0.632935
-0.055237	0.164490	-0.630035
-0.054321	0.140076	-0.618744
-0.067902	0.092316	-0.623169
-0.098877	0.060272	-0.619812
-0.116272	0.099792	-0.608826
-0.118866	0.136108	-0.615540
-0.097351	0.141754	-0.611267
-0.092773	0.114594	-0.624390
-0.113373	0.037689	-0.621338
-0.117340	0.005035	-0.612793
-0.124359	0.040131	-0.621338
-0.094604	0.082092	-0.612640
-0.081940	0.127258	-0.611267
-0.070801	0.121765	-0.610962
-0.052032	0.093079	-0.622559
-0.034485	0.086517	-0.592804
-0.006409	0.092163	-0.609589
-0.007629	0.108337	-0.605927
-0.051422	0.111389	-0.598755
-0.084534	0.125275	-0.612640
-0.094299	0.102539	-0.599823
-0.122223	0.078125	-0.621185
-0.147552	0.086975	-0.633545
-0.147400	0.128937	-0.624390
-0.113983	0.125122	-0.624084
-0.046082	0.069427	-0.609894
-0.016327	0.074005	-0.618286
-0.020752	0.115356	-0.609283
-0.032349	0.152130	-0.608215
-0.082397	0.155182	-0.609741
-0.145416	0.121918	-0.608063
-0.173187	0.090942	-0.610199
-0.207977	0.077515	-0.602875
-0.216064	0.100250	-0.618134
-0.155029	0.141602	-0.607452
-0.115509	0.081635	-0.607147
-0.082550	0.039673	-0.615997
-0.057678	0.055084	-0.588074
-0.057526	0.082245	-0.611725
-0.013428	0.132751	-0.588074
0.005493	0.111847	-0.606079
0.005646	0.097961	-0.615540
0.000916	0.033722	-0.599518
0.005646	0.066528	-0.603027
-0.000610	0.081329	-0.604095
-0.012817	0.107880	-0.603790
-0.050354	0.107269	-0.590515
-0.120544	0.050049	-0.616302
-0.139465	0.046082	-0.595703
-0.142822	0.059052	-0.587006
-0.153656	0.127258	-0.598755
-0.159760	0.131378	-0.589142
-0.176544	0.095062	-0.589294
-0.139313	0.066833	-0.568237
-0.148773	0.040741	-0.596313
-0.140228	0.073700	-0.581360
-0.123596	0.124207	-0.563812
-0.113068	0.125427	-0.567322
-0.074158	0.020752	-0.560760
-0.031891	0.004578	-0.569916
-0.006409	0.055389	-0.567169
-0.001373	0.074615	-0.554504
-0.028839	0.090332	-0.572357
-0.046539	0.094452	-0.574036
-0.068207	0.007782	-0.572357
-0.070648	0.007019	-0.582886
-0.051117	0.056000	-0.565948
-0.043030	0.128021	-0.572205
-0.017242	0.112610	-0.547943
-0.021515	0.067291	-0.565948
-0.066376	0.037384	-0.554352
-0.083771	0.050201	-0.559540
-0.100250	0.075226	-0.559082
-0.100708	0.075378	-0.561066
-0.102386	0.063324	-0.575256
-0.126953	0.038910	-0.567169
-0.135345	0.057220	-0.549774
-0.123291	0.078430	-0.553131
-0.111237	0.106812	-0.538940
-0.133972	0.106201	-0.552673
-0.159760	0.089569	-0.549622
-0.163727	0.042877	-0.548248
-0.130310	0.039825	-0.545349
-0.075226	0.081635	-0.537720
-0.088348	0.096741	-0.556183
-0.107269	0.090790	-0.529938
-0.131989	0.057068	-0.549164
-0.137939	0.050354	-0.530548
-0.115051	0.067139	-0.527496
-0.098724	0.094299	-0.535278
-0.109711	0.060577	-0.540314
-0.090942	0.023499	-0.524139
-0.059509	0.014648	-0.525513
-0.006561	0.049438	-0.538177
-0.013580	0.093536	-0.527802
-0.071259	0.095520	-0.519562
-0.119781	0.085907	-0.534210
-0.110016	0.031891	-0.544891
-0.059967	0.050201	-0.533905
-0.034790	0.079193	-0.516205
-0.061035	0.124969	-0.539093
-0.089874	0.104065	-0.540009
-0.110016	0.084839	-0.536804
-0.126801	0.068665	-0.523376
-0.154877	0.054169	-0.540924
-0.168762	-0.003357	-0.556488
-0.117950	0.014648	-0.549316
-0.087891	0.016479	-0.559235
-0.068054	0.027008	-0.532990
-0.066376	0.012360	-0.565033
-0.071716	0.057373	-0.547943
-0.073395	0.079193	-0.549469
-0.086517	0.094757	-0.570679
-0.133820	0.092468	-0.556793
-0.150146	0.057068	-0.569305
-0.122528	0.057983	-0.548401
-0.084839	0.093842	-0.572205
-0.036621	0.113525	-0.564117
-0.000916	0.107880	-0.568085
-0.009613	0.069427	-0.571442
-0.047760	0.040588	-0.595703
-0.078278	0.055695	-0.593109
-0.094910	0.092468	-0.614014
-0.082397	0.093842	-0.603027
-0.038757	0.061493	-0.610657
-0.012207	0.027771	-0.619354
-0.024261	0.036163	-0.614471
-0.064850	0.072327	-0.644684
-0.144043	0.086975	-0.623322
-0.235596	0.067291	-0.632172
-0.258179	0.037079	-0.646515
-0.252075	0.009918	-0.657501
-0.221863	0.056000	-0.645294
-0.149078	0.105591	-0.663757
-0.056915	0.118256	-0.679016
0.033417	0.088806	-0.668488
0.038605	0.050964	-0.673981
-0.036163	0.055542	-0.686188
-0.082855	0.049286	-0.673981
-0.049896	0.088654	-0.681305
-0.004425	0.081177	-0.689545
0.016937	0.038147	-0.689545
-0.029449	0.005493	-0.698395
-0.077667	0.009308	-0.693207
-0.133057	0.054779	-0.700531
-0.186768	0.069580	-0.695343
-0.228882	0.082245	-0.695648
-0.213165	0.053558	-0.707245
-0.125427	0.058289	-0.693665
-0.041504	0.086365	-0.701141
-0.015717	0.146027	-0.704193
-0.063629	0.093079	-0.710297
-0.071259	0.057068	-0.708160
-0.081177	0.028229	-0.711670
-0.089417	0.031281	-0.708923
-0.095215	0.080414	-0.725098
-0.088959	0.101013	-0.726776
-0.048370	0.071869	-0.720520
-0.030060	0.045013	-0.731964
-0.037384	0.021667	-0.747375
-0.073395	0.049896	-0.752106
-0.111084	0.079346	-0.762787
-0.127716	0.063782	-0.762939
-0.117950	0.053864	-0.754395
-0.098114	0.043335	-0.756378
-0.108185	0.057831	-0.743408
-0.109406	0.077820	-0.753479
-0.102844	0.128326	-0.749054
-0.095215	0.082245	-0.734558
-0.054016	0.050507	-0.720673
-0.031738	0.044556	-0.739288
-0.010529	0.044250	-0.721741
-0.018768	0.069733	-0.718231
-0.003357	0.095978	-0.725098
-0.012512	0.064850	-0.729065
-0.041504	0.008392	-0.724335
-0.054321	0.024567	-0.709229
-0.113678	0.026703	-0.729980
-0.137024	0.080109	-0.733490
-0.153656	0.089722	-0.735931
-0.157166	0.068817	-0.712585
-0.179138	0.011292	-0.724945
-0.146332	-0.014648	-0.734863
-0.128632	0.076752	-0.740967
-0.109100	0.125275	-0.733490
-0.104065	0.091858	-0.719452
-0.100555	0.054932	-0.742798
-0.066071	0.056915	-0.739288
-0.027618	0.052338	-0.712433
-0.019073	0.097351	-0.722046
-0.016785	0.085297	-0.729218
-0.032349	0.053711	-0.728455
-0.020599	0.004120	-0.724945
-0.028381	0.077667	-0.699310
-0.092773	0.110168	-0.690765
-0.123138	0.104370	-0.705261
-0.102997	0.096741	-0.704041
-0.087280	0.034790	-0.695190
-0.115662	0.030823	-0.702209
-0.139313	0.046692	-0.685425
-0.149994	0.092468	-0.671844
-0.112610	0.096283	-0.678711
-0.101471	0.053101	-0.679474
-0.104980	0.050049	-0.694885
-0.108337	0.062714	-0.672150
-0.081787	0.072784	-0.679169
-0.065918	0.096893	-0.691528
-0.055084	0.070038	-0.669250
-0.075989	0.013580	-0.684052
-0.095825	0.023041	-0.676270
-0.092926	0.060272	-0.670166
-0.094299	0.102692	-0.668182
-0.121307	0.101166	-0.660248
-0.129852	0.077820	-0.673370
-0.097046	0.062714	-0.658112
-0.062256	0.054321	-0.667419
-0.026398	0.121918	-0.661163
-0.055695	0.129242	-0.654144
-0.057678	0.099945	-0.656128
-0.052490	0.059814	-0.658722
-0.039368	0.044098	-0.648956
-0.055542	0.057831	-0.654297
-0.102997	0.082703	-0.634155
-0.111542	0.104828	-0.629883
-0.093994	0.110016	-0.618439
-0.072327	0.047150	-0.619202
-0.073547	0.081482	-0.626068
-0.090942	0.125275	-0.591888
-0.100098	0.134430	-0.597839
-0.100098	0.126495	-0.608215
-0.087433	0.073700	-0.594635
-0.086060	0.056915	-0.591431
-0.106964	0.083618	-0.577545
-0.118561	0.153961	-0.596771
-0.094147	0.165253	-0.594940
-0.064240	0.147400	-0.559082
-0.115204	0.102997	-0.578766
-0.156250	0.119019	-0.573120
-0.161591	0.151367	-0.585937
-0.123138	0.215149	-0.583649
-0.080109	0.180359	-0.564575
-0.071869	0.129395	-0.585327
-0.043945	0.118103	-0.558167
0.010986	0.206909	-0.554657
-0.011292	0.224304	-0.562592
-0.071716	0.244904	-0.546875
-0.149689	0.232544	-0.575714
-0.140991	0.200500	-0.547028
-0.122375	0.187836	-0.553589
-0.089264	0.199127	-0.552063
-0.101624	0.229797	-0.549011
-0.121155	0.252533	-0.555420
-0.123291	0.208588	-0.551300
-0.102081	0.162811	-0.542755
-0.095673	0.163269	-0.545654
-0.092316	0.218811	-0.533600
-0.088654	0.228729	-0.554504
-0.050507	0.206604	-0.547028
-0.044708	0.136871	-0.571136
-0.039520	0.171509	-0.542908
-0.085907	0.211029	-0.559387
-0.079803	0.242767	-0.544891
-0.084381	0.266418	-0.552826
-0.107574	0.269623	-0.548859
-0.124054	0.251312	-0.550232
-0.100403	0.256653	-0.562286
-0.076599	0.290527	-0.543976
-0.095825	0.291138	-0.560760
-0.148621	0.266571	-0.564575
-0.201263	0.254364	-0.543365
-0.249786	0.251465	-0.563965
-0.210876	0.251160	-0.571136
-0.144958	0.286865	-0.568848
-0.122223	0.296478	-0.579681
-0.084381	0.292969	-0.582733
-0.086517	0.248566	-0.602875
-0.045166	0.285492	-0.574341
-0.022888	0.287018	-0.589752
-0.022430	0.310516	-0.606995
-0.057220	0.308075	-0.596008
-0.078735	0.279236	-0.591888
-0.064240	0.266571	-0.594482
-0.049133	0.295410	-0.596313
-0.054626	0.325317	-0.584259
-0.072784	0.305786	-0.587921
-0.107574	0.250854	-0.593567
-0.099182	0.224457	-0.564880
-0.106659	0.191650	-0.592651
-0.100098	0.208130	-0.588837
-0.090027	0.246735	-0.578003
-0.051880	0.208282	-0.562286
0.013733	0.173950	-0.578461
0.059662	0.148468	-0.555420
0.026245	0.166321	-0.573273
-0.015717	0.182190	-0.564117
-0.032959	0.200653	-0.555267
-0.050964	0.191498	-0.585022
-0.074310	0.176086	-0.551758
-0.112610	0.155792	-0.567322
-0.097961	0.180664	-0.545502
-0.059052	0.201111	-0.539551
-0.079803	0.192719	-0.552673
-0.115509	0.173950	-0.517883
-0.149689	0.159607	-0.547943
-0.132599	0.164490	-0.531616
-0.077515	0.178986	-0.540009
-0.052795	0.200958	-0.531158
-0.037842	0.189514	-0.522766
0.002441	0.123444	-0.537720
0.047455	0.139313	-0.532227
0.069580	0.119324	-0.557709
0.008392	0.116730	-0.556335
-0.073547	0.102997	-0.565491
-0.091248	0.122833	-0.562592
-0.061188	0.094757	-0.562592
-0.032654	0.106354	-0.577850
-0.061340	0.133057	-0.574036
-0.097504	0.110168	-0.607758
-0.106812	0.093384	-0.586395
-0.130920	0.055389	-0.589294
-0.139618	0.058136	-0.612183
-0.167847	0.022888	-0.611267
-0.144348	0.074463	-0.613251
-0.094452	0.088196	-0.603333
-0.065460	0.066071	-0.613251
-0.097046	-0.002136	-0.627136
-0.144348	-0.004425	-0.634460
-0.145721	0.022278	-0.608978
-0.140381	0.035248	-0.638123
-0.115967	0.055847	-0.623932
-0.093079	0.026703	-0.611115
-0.084076	0.017548	-0.621796
-0.069275	0.008545	-0.607758
-0.075531	0.077820	-0.621643
-0.095215	0.056915	-0.627441
-0.092010	0.034027	-0.615540
-0.115204	-0.006714	-0.624237
-0.135956	0.006409	-0.636749
-0.151367	0.015564	-0.621033
-0.125427	0.035706	-0.624390
-0.107269	0.025177	-0.633392
-0.077820	-0.025024	-0.625000
-0.066223	-0.055847	-0.632019
-0.014648	-0.025635	-0.643921
0.032043	0.022430	-0.636139
0.008545	0.028839	-0.638580
-0.018921	0.037689	-0.648193
-0.029297	-0.018005	-0.640106
-0.019989	-0.032349	-0.650940
-0.043793	-0.001984	-0.649719
-0.084381	0.036163	-0.654449
-0.110474	0.003204	-0.641174
-0.090179	0.013733	-0.647278
-0.089111	0.002136	-0.644531
-0.084229	0.005035	-0.641479
-0.105591	0.047913	-0.651093
-0.089264	0.063324	-0.627747
-0.064697	0.019073	-0.643158
-0.047455	-0.029602	-0.612030
-0.055695	0.007172	-0.617828
-0.068512	0.011444	-0.595551
-0.055389	0.015717	-0.603333
-0.067749	-0.008698	-0.603485
-0.063782	-0.001831	-0.595245
-0.091095	-0.044250	-0.595093
-0.084991	-0.061646	-0.583496
-0.099640	-0.027924	-0.584106
-0.142670	0.011749	-0.595398
-0.181427	-0.000916	-0.578156
-0.251160	-0.032349	-0.585175
-0.265350	-0.058441	-0.600281
-0.197296	-0.011597	-0.586090
-0.150909	-0.002136	-0.597687
-0.118561	0.005035	-0.578003
-0.091400	-0.014496	-0.587311
-0.053711	-0.041962	-0.569763
-0.000305	0.012512	-0.572205
0.063324	0.000916	-0.583801
0.093536	0.020752	-0.574036
0.038910	0.027313	-0.572510
-0.059662	0.001831	-0.575409
-0.133209	-0.016174	-0.584259
-0.179443	0.013885	-0.594482
-0.211487	0.066376	-0.578613
-0.228271	0.028229	-0.600586
-0.201263	-0.012665	-0.589905
-0.164642	-0.039673	-0.596466
-0.125580	-0.040283	-0.601959
-0.111237	0.016479	-0.600891
-0.118408	0.057983	-0.581512
-0.140076	0.022888	-0.603333
-0.110168	-0.023041	-0.563660
-0.077209	-0.064545	-0.577087
-0.050659	-0.080719	-0.581207
-0.008545	-0.029297	-0.561218
0.022888	-0.016785	-0.566864
-0.007477	-0.039368	-0.567780
-0.026093	-0.125732	-0.558624
-0.071564	-0.172729	-0.556793
-0.055695	-0.184631	-0.535736
-0.024261	-0.204773	-0.537109
-0.004578	-0.263367	-0.509186
-0.030975	-0.296478	-0.502472
-0.073700	-0.304413	-0.491791
-0.097656	-0.300903	-0.485229
-0.111084	-0.237579	-0.487518
-0.129700	-0.197601	-0.464783
-0.133514	-0.171661	-0.453186
-0.118561	-0.188599	-0.464478
-0.069885	-0.114288	-0.455017
-0.036316	-0.020599	-0.441437
-0.077362	0.103302	-0.447998
-0.149078	0.246735	-0.445099
-0.177917	0.328369	-0.442657
-0.150909	0.448761	-0.435181
-0.128479	0.613098	-0.419464
-0.092621	0.861816	-0.409851
-0.037231	1.011810	-0.401917
0.007324	1.107635	-0.396271
0.059967	1.195679	-0.401154
0.032043	1.331635	-0.403137
-0.006256	1.435089	-0.391235
-0.045929	1.629486	-0.386963
-0.061798	1.779938	-0.376434
-0.062408	1.839142	-0.373383
-0.085754	1.940002	-0.350189
-0.139313	2.066345	-0.348206
-0.186005	2.208099	-0.349884
-0.190735	2.393036	-0.339661
-0.193634	2.557678	-0.347137
-0.183868	2.628632	-0.351562
-0.143890	2.663879	-0.337982
-0.102692	2.648010	-0.351105
-0.081940	2.648010	-0.358582
-0.104980	2.631683	-0.350037
-0.134888	2.430725	-0.335236
-0.198975	2.175751	-0.339813
-0.219421	1.913605	-0.346069
